          Evm          Svm            E11          E22          E33          E23          E13          E12         SDEV11       SDEV22       SDEV33       SDEV23       SDEV13       SDEV12      TEMP
  0.00000E+00  0.14426E+03    0.00000E+00  0.00000E+00  0.00000E+00  0.00000E+00  0.00000E+00  0.00000E+00    0.39733E+02  0.52625E+02 -0.92358E+02  0.13095E+02  0.64910E+01  0.16849E+02      982.00
  0.24009E-01  0.14412E+03    0.12500E-01  0.12500E-01 -0.25000E-01  0.00000E+00  0.00000E+00  0.00000E+00    0.39626E+02  0.52356E+02 -0.91982E+02  0.12722E+02  0.58851E+01  0.18459E+02      982.00
  0.47943E-01  0.14887E+03    0.25000E-01  0.25000E-01 -0.50000E-01  0.00000E+00  0.00000E+00  0.00000E+00    0.40914E+02  0.53343E+02 -0.94257E+02  0.12754E+02  0.57297E+01  0.22138E+02      982.00
  0.71686E-01  0.16083E+03    0.37500E-01  0.37500E-01 -0.75000E-01  0.00000E+00  0.00000E+00  0.00000E+00    0.44062E+02  0.56102E+02 -0.10016E+03  0.13160E+02  0.59900E+01  0.29189E+02      982.00
  0.95041E-01  0.18438E+03    0.50000E-01  0.50000E-01 -0.10000E+00  0.00000E+00  0.00000E+00  0.00000E+00    0.49870E+02  0.61504E+02 -0.11137E+03  0.13948E+02  0.66763E+01  0.41908E+02      982.00
  0.11769E+00  0.22747E+03    0.62500E-01  0.62500E-01 -0.12500E+00  0.00000E+00  0.00000E+00  0.00000E+00    0.59848E+02  0.70820E+02 -0.13067E+03  0.15134E+02  0.77954E+01  0.64203E+02      982.00
  0.13923E+00  0.29254E+03    0.75000E-01  0.75000E-01 -0.15000E+00  0.00000E+00  0.00000E+00  0.00000E+00    0.75539E+02  0.82671E+02 -0.15821E+03  0.16266E+02  0.87755E+01  0.96953E+02      982.00
  0.15951E+00  0.34492E+03    0.87500E-01  0.87500E-01 -0.17500E+00  0.00000E+00  0.00000E+00  0.00000E+00    0.91975E+02  0.87729E+02 -0.17970E+03  0.16507E+02  0.87497E+01  0.12281E+03      982.00
  0.17905E+00  0.37995E+03    0.10000E+00  0.10000E+00 -0.20000E+00  0.00000E+00  0.00000E+00  0.00000E+00    0.10488E+03  0.88950E+02 -0.19383E+03  0.16450E+02  0.86883E+01  0.13977E+03      982.00
  0.19818E+00  0.40932E+03    0.11250E+00  0.11250E+00 -0.22500E+00  0.00000E+00  0.00000E+00  0.00000E+00    0.11522E+03  0.90331E+02 -0.20555E+03  0.16341E+02  0.87655E+01  0.15382E+03      982.00
  0.21701E+00  0.43332E+03    0.12500E+00  0.12500E+00 -0.25000E+00  0.00000E+00  0.00000E+00  0.00000E+00    0.12322E+03  0.91868E+02 -0.21509E+03  0.16147E+02  0.89061E+01  0.16524E+03      982.00
  0.23563E+00  0.45222E+03    0.13750E+00  0.13750E+00 -0.27500E+00  0.00000E+00  0.00000E+00  0.00000E+00    0.12929E+03  0.93292E+02 -0.22258E+03  0.15871E+02  0.90982E+01  0.17422E+03      982.00
  0.25409E+00  0.46703E+03    0.15000E+00  0.15000E+00 -0.30000E+00  0.00000E+00  0.00000E+00  0.00000E+00    0.13394E+03  0.94480E+02 -0.22842E+03  0.15528E+02  0.93430E+01  0.18126E+03      982.00
  0.27243E+00  0.47871E+03    0.16250E+00  0.16250E+00 -0.32500E+00  0.00000E+00  0.00000E+00  0.00000E+00    0.13761E+03  0.95360E+02 -0.23297E+03  0.15122E+02  0.96379E+01  0.18684E+03      982.00
  0.29068E+00  0.48803E+03    0.17500E+00  0.17500E+00 -0.35000E+00  0.00000E+00  0.00000E+00  0.00000E+00    0.14062E+03  0.95935E+02 -0.23656E+03  0.14661E+02  0.99871E+01  0.19133E+03      982.00
  0.30885E+00  0.49560E+03    0.18750E+00  0.18750E+00 -0.37500E+00  0.00000E+00  0.00000E+00  0.00000E+00    0.14313E+03  0.96267E+02 -0.23940E+03  0.14147E+02  0.10387E+02  0.19502E+03      982.00
  0.32697E+00  0.50185E+03    0.20000E+00  0.20000E+00 -0.40000E+00  0.00000E+00  0.00000E+00  0.00000E+00    0.14524E+03  0.96449E+02 -0.24169E+03  0.13587E+02  0.10818E+02  0.19810E+03      982.00
  0.34503E+00  0.50705E+03    0.21250E+00  0.21250E+00 -0.42500E+00  0.00000E+00  0.00000E+00  0.00000E+00    0.14709E+03  0.96438E+02 -0.24353E+03  0.12998E+02  0.11260E+02  0.20071E+03      982.00
  0.36304E+00  0.51152E+03    0.22500E+00  0.22500E+00 -0.45000E+00  0.00000E+00  0.00000E+00  0.00000E+00    0.14867E+03  0.96368E+02 -0.24504E+03  0.12405E+02  0.11683E+02  0.20300E+03      982.00
  0.38100E+00  0.51549E+03    0.23750E+00  0.23750E+00 -0.47500E+00  0.00000E+00  0.00000E+00  0.00000E+00    0.14998E+03  0.96361E+02 -0.24634E+03  0.11828E+02  0.12059E+02  0.20509E+03      982.00
  0.39892E+00  0.51909E+03    0.25000E+00  0.25000E+00 -0.50000E+00  0.00000E+00  0.00000E+00  0.00000E+00    0.15110E+03  0.96365E+02 -0.24747E+03  0.11297E+02  0.12378E+02  0.20702E+03      982.00
  0.41680E+00  0.52238E+03    0.26250E+00  0.26250E+00 -0.52500E+00  0.00000E+00  0.00000E+00  0.00000E+00    0.15206E+03  0.96403E+02 -0.24846E+03  0.10824E+02  0.12633E+02  0.20883E+03      982.00
  0.43464E+00  0.52586E+03    0.27500E+00  0.27500E+00 -0.55000E+00  0.00000E+00  0.00000E+00  0.00000E+00    0.15288E+03  0.96616E+02 -0.24949E+03  0.10370E+02  0.12787E+02  0.21078E+03      982.00
  0.45243E+00  0.52921E+03    0.28750E+00  0.28750E+00 -0.57500E+00  0.00000E+00  0.00000E+00  0.00000E+00    0.15353E+03  0.96923E+02 -0.25045E+03  0.99921E+01  0.12912E+02  0.21270E+03      982.00
  0.47018E+00  0.52992E+03    0.30000E+00  0.30000E+00 -0.60000E+00  0.00000E+00  0.00000E+00  0.00000E+00    0.15329E+03  0.97015E+02 -0.25030E+03  0.96067E+01  0.12941E+02  0.21346E+03      982.00
  0.48789E+00  0.53089E+03    0.31250E+00  0.31250E+00 -0.62500E+00  0.00000E+00  0.00000E+00  0.00000E+00    0.15307E+03  0.97179E+02 -0.25025E+03  0.94086E+01  0.12950E+02  0.21434E+03      982.00
  0.50557E+00  0.53168E+03    0.32500E+00  0.32500E+00 -0.65000E+00  0.00000E+00  0.00000E+00  0.00000E+00    0.15287E+03  0.97238E+02 -0.25011E+03  0.92192E+01  0.12962E+02  0.21514E+03      982.00
  0.52321E+00  0.53274E+03    0.33750E+00  0.33750E+00 -0.67500E+00  0.00000E+00  0.00000E+00  0.00000E+00    0.15261E+03  0.97429E+02 -0.25004E+03  0.90106E+01  0.12915E+02  0.21611E+03      982.00
  0.54081E+00  0.53366E+03    0.35000E+00  0.35000E+00 -0.70000E+00  0.00000E+00  0.00000E+00  0.00000E+00    0.15234E+03  0.97551E+02 -0.24989E+03  0.88399E+01  0.12861E+02  0.21703E+03      982.00
  0.55837E+00  0.53469E+03    0.36250E+00  0.36250E+00 -0.72500E+00  0.00000E+00  0.00000E+00  0.00000E+00    0.15205E+03  0.97716E+02 -0.24977E+03  0.86826E+01  0.12775E+02  0.21802E+03      982.00
  0.57588E+00  0.53583E+03    0.37500E+00  0.37500E+00 -0.75000E+00  0.00000E+00  0.00000E+00  0.00000E+00    0.15172E+03  0.97951E+02 -0.24967E+03  0.85407E+01  0.12674E+02  0.21909E+03      982.00
  0.59336E+00  0.53698E+03    0.38750E+00  0.38750E+00 -0.77500E+00  0.00000E+00  0.00000E+00  0.00000E+00    0.15139E+03  0.98161E+02 -0.24955E+03  0.84086E+01  0.12548E+02  0.22016E+03      982.00
  0.61078E+00  0.53815E+03    0.40000E+00  0.40000E+00 -0.80000E+00  0.00000E+00  0.00000E+00  0.00000E+00    0.15101E+03  0.98410E+02 -0.24942E+03  0.82826E+01  0.12409E+02  0.22127E+03      982.00
  0.62816E+00  0.53932E+03    0.41250E+00  0.41250E+00 -0.82500E+00  0.00000E+00  0.00000E+00  0.00000E+00    0.15061E+03  0.98668E+02 -0.24928E+03  0.81566E+01  0.12249E+02  0.22239E+03      982.00
  0.64550E+00  0.54048E+03    0.42500E+00  0.42500E+00 -0.85000E+00  0.00000E+00  0.00000E+00  0.00000E+00    0.15019E+03  0.98926E+02 -0.24912E+03  0.80270E+01  0.12066E+02  0.22352E+03      982.00
  0.66278E+00  0.54163E+03    0.43750E+00  0.43750E+00 -0.87500E+00  0.00000E+00  0.00000E+00  0.00000E+00    0.14976E+03  0.99182E+02 -0.24894E+03  0.78907E+01  0.11859E+02  0.22465E+03      982.00
  0.68002E+00  0.54277E+03    0.45000E+00  0.45000E+00 -0.90000E+00  0.00000E+00  0.00000E+00  0.00000E+00    0.14933E+03  0.99435E+02 -0.24876E+03  0.77453E+01  0.11626E+02  0.22577E+03      982.00
  0.69720E+00  0.54390E+03    0.46250E+00  0.46250E+00 -0.92500E+00  0.00000E+00  0.00000E+00  0.00000E+00    0.14889E+03  0.99683E+02 -0.24857E+03  0.75894E+01  0.11369E+02  0.22688E+03      982.00
  0.71434E+00  0.54501E+03    0.47500E+00  0.47500E+00 -0.95000E+00  0.00000E+00  0.00000E+00  0.00000E+00    0.14845E+03  0.99926E+02 -0.24838E+03  0.74226E+01  0.11088E+02  0.22798E+03      982.00
  0.73143E+00  0.54610E+03    0.48750E+00  0.48750E+00 -0.97500E+00  0.00000E+00  0.00000E+00  0.00000E+00    0.14803E+03  0.10016E+03 -0.24819E+03  0.72451E+01  0.10785E+02  0.22906E+03      982.00
  0.74848E+00  0.54716E+03    0.50000E+00  0.50000E+00 -0.10000E+01  0.00000E+00  0.00000E+00  0.00000E+00    0.14761E+03  0.10039E+03 -0.24800E+03  0.70583E+01  0.10463E+02  0.23011E+03      982.00
