          Evm          Svm            E11          E22          E33          E23          E13          E12         SDEV11       SDEV22       SDEV33       SDEV23       SDEV13       SDEV12      TEMP
  0.00000E+00  0.16898E+03    0.00000E+00  0.00000E+00  0.00000E+00  0.00000E+00  0.00000E+00  0.00000E+00    0.61317E+02  0.50081E+02 -0.11140E+03 -0.72302E+01 -0.27245E+01  0.10959E+02      982.00
  0.24721E-01  0.16826E+03    0.12500E-01  0.12500E-01 -0.25000E-01  0.00000E+00  0.00000E+00  0.00000E+00    0.59764E+02  0.51129E+02 -0.11089E+03 -0.64960E+01 -0.22682E+01  0.12165E+02      982.00
  0.49436E-01  0.17625E+03    0.25000E-01  0.25000E-01 -0.50000E-01  0.00000E+00  0.00000E+00  0.00000E+00    0.58590E+02  0.57351E+02 -0.11594E+03 -0.69229E+01 -0.21876E+01  0.14814E+02      982.00
  0.74105E-01  0.18745E+03    0.37500E-01  0.37500E-01 -0.75000E-01  0.00000E+00  0.00000E+00  0.00000E+00    0.56350E+02  0.66406E+02 -0.12276E+03 -0.77053E+01 -0.21437E+01  0.17938E+02      982.00
  0.98662E-01  0.19673E+03    0.50000E-01  0.50000E-01 -0.10000E+00  0.00000E+00  0.00000E+00  0.00000E+00    0.55087E+02  0.72996E+02 -0.12808E+03 -0.78028E+01 -0.19567E+01  0.21267E+02      982.00
  0.12308E+00  0.20937E+03    0.62500E-01  0.62500E-01 -0.12500E+00  0.00000E+00  0.00000E+00  0.00000E+00    0.56083E+02  0.79259E+02 -0.13534E+03 -0.75018E+01 -0.19858E+01  0.26059E+02      982.00
  0.14732E+00  0.22751E+03    0.75000E-01  0.75000E-01 -0.15000E+00  0.00000E+00  0.00000E+00  0.00000E+00    0.58921E+02  0.86853E+02 -0.14577E+03 -0.73115E+01 -0.22152E+01  0.32588E+02      982.00
  0.17135E+00  0.24983E+03    0.87500E-01  0.87500E-01 -0.17500E+00  0.00000E+00  0.00000E+00  0.00000E+00    0.63064E+02  0.95519E+02 -0.15858E+03 -0.73253E+01 -0.25361E+01  0.40252E+02      982.00
  0.19515E+00  0.27324E+03    0.10000E+00  0.10000E+00 -0.20000E+00  0.00000E+00  0.00000E+00  0.00000E+00    0.67858E+02  0.10417E+03 -0.17203E+03 -0.74568E+01 -0.28484E+01  0.47937E+02      982.00
  0.21876E+00  0.29453E+03    0.11250E+00  0.11250E+00 -0.22500E+00  0.00000E+00  0.00000E+00  0.00000E+00    0.72575E+02  0.11181E+03 -0.18439E+03 -0.76386E+01 -0.31346E+01  0.54428E+02      982.00
  0.24224E+00  0.31235E+03    0.12500E+00  0.12500E+00 -0.25000E+00  0.00000E+00  0.00000E+00  0.00000E+00    0.76883E+02  0.11806E+03 -0.19494E+03 -0.78234E+01 -0.33699E+01  0.59349E+02      982.00
  0.26564E+00  0.32659E+03    0.13750E+00  0.13750E+00 -0.27500E+00  0.00000E+00  0.00000E+00  0.00000E+00    0.80620E+02  0.12303E+03 -0.20365E+03 -0.80352E+01 -0.35910E+01  0.62623E+02      982.00
  0.28902E+00  0.33775E+03    0.15000E+00  0.15000E+00 -0.30000E+00  0.00000E+00  0.00000E+00  0.00000E+00    0.83893E+02  0.12686E+03 -0.21075E+03 -0.82556E+01 -0.37905E+01  0.64576E+02      982.00
  0.31242E+00  0.34647E+03    0.16250E+00  0.16250E+00 -0.32500E+00  0.00000E+00  0.00000E+00  0.00000E+00    0.86806E+02  0.12978E+03 -0.21659E+03 -0.85045E+01 -0.39847E+01  0.65422E+02      982.00
  0.33587E+00  0.35334E+03    0.17500E+00  0.17500E+00 -0.35000E+00  0.00000E+00  0.00000E+00  0.00000E+00    0.89477E+02  0.13200E+03 -0.22148E+03 -0.87843E+01 -0.41850E+01  0.65414E+02      982.00
  0.35937E+00  0.35888E+03    0.18750E+00  0.18750E+00 -0.37500E+00  0.00000E+00  0.00000E+00  0.00000E+00    0.92015E+02  0.13369E+03 -0.22570E+03 -0.91346E+01 -0.44519E+01  0.64727E+02      982.00
  0.38296E+00  0.36346E+03    0.20000E+00  0.20000E+00 -0.40000E+00  0.00000E+00  0.00000E+00  0.00000E+00    0.94429E+02  0.13501E+03 -0.22944E+03 -0.95076E+01 -0.46915E+01  0.63468E+02      982.00
  0.40663E+00  0.36730E+03    0.21250E+00  0.21250E+00 -0.42500E+00  0.00000E+00  0.00000E+00  0.00000E+00    0.96789E+02  0.13599E+03 -0.23278E+03 -0.99264E+01 -0.49613E+01  0.61830E+02      982.00
  0.43039E+00  0.37074E+03    0.22500E+00  0.22500E+00 -0.45000E+00  0.00000E+00  0.00000E+00  0.00000E+00    0.99167E+02  0.13671E+03 -0.23588E+03 -0.10365E+02 -0.52199E+01  0.60004E+02      982.00
  0.45425E+00  0.37096E+03    0.23750E+00  0.23750E+00 -0.47500E+00  0.00000E+00  0.00000E+00  0.00000E+00    0.10068E+03  0.13625E+03 -0.23693E+03 -0.10542E+02 -0.53223E+01  0.57547E+02      982.00
  0.47820E+00  0.37142E+03    0.25000E+00  0.25000E+00 -0.50000E+00  0.00000E+00  0.00000E+00  0.00000E+00    0.10227E+03  0.13584E+03 -0.23810E+03 -0.10750E+02 -0.54939E+01  0.55115E+02      982.00
  0.50224E+00  0.37221E+03    0.26250E+00  0.26250E+00 -0.52500E+00  0.00000E+00  0.00000E+00  0.00000E+00    0.10394E+03  0.13547E+03 -0.23941E+03 -0.10952E+02 -0.56571E+01  0.52833E+02      982.00
  0.52636E+00  0.37323E+03    0.27500E+00  0.27500E+00 -0.55000E+00  0.00000E+00  0.00000E+00  0.00000E+00    0.10567E+03  0.13515E+03 -0.24082E+03 -0.11156E+02 -0.58252E+01  0.50630E+02      982.00
  0.55056E+00  0.37444E+03    0.28750E+00  0.28750E+00 -0.57500E+00  0.00000E+00  0.00000E+00  0.00000E+00    0.10743E+03  0.13488E+03 -0.24231E+03 -0.11392E+02 -0.60651E+01  0.48399E+02      982.00
  0.57483E+00  0.37592E+03    0.30000E+00  0.30000E+00 -0.60000E+00  0.00000E+00  0.00000E+00  0.00000E+00    0.10927E+03  0.13465E+03 -0.24392E+03 -0.11584E+02 -0.62296E+01  0.46377E+02      982.00
  0.59916E+00  0.37761E+03    0.31250E+00  0.31250E+00 -0.62500E+00  0.00000E+00  0.00000E+00  0.00000E+00    0.11115E+03  0.13445E+03 -0.24560E+03 -0.11767E+02 -0.63922E+01  0.44440E+02      982.00
  0.62355E+00  0.37947E+03    0.32500E+00  0.32500E+00 -0.65000E+00  0.00000E+00  0.00000E+00  0.00000E+00    0.11308E+03  0.13427E+03 -0.24735E+03 -0.11937E+02 -0.65514E+01  0.42587E+02      982.00
  0.64799E+00  0.38150E+03    0.33750E+00  0.33750E+00 -0.67500E+00  0.00000E+00  0.00000E+00  0.00000E+00    0.11506E+03  0.13412E+03 -0.24917E+03 -0.12092E+02 -0.67052E+01  0.40818E+02      982.00
  0.67249E+00  0.38360E+03    0.35000E+00  0.35000E+00 -0.70000E+00  0.00000E+00  0.00000E+00  0.00000E+00    0.11700E+03  0.13399E+03 -0.25099E+03 -0.12199E+02 -0.67910E+01  0.39185E+02      982.00
  0.69702E+00  0.38586E+03    0.36250E+00  0.36250E+00 -0.72500E+00  0.00000E+00  0.00000E+00  0.00000E+00    0.11895E+03  0.13393E+03 -0.25289E+03 -0.12324E+02 -0.69323E+01  0.37547E+02      982.00
  0.72160E+00  0.38821E+03    0.37500E+00  0.37500E+00 -0.75000E+00  0.00000E+00  0.00000E+00  0.00000E+00    0.12094E+03  0.13386E+03 -0.25480E+03 -0.12415E+02 -0.70597E+01  0.35986E+02      982.00
  0.74621E+00  0.39062E+03    0.38750E+00  0.38750E+00 -0.77500E+00  0.00000E+00  0.00000E+00  0.00000E+00    0.12291E+03  0.13382E+03 -0.25674E+03 -0.12478E+02 -0.71700E+01  0.34497E+02      982.00
  0.77086E+00  0.39308E+03    0.40000E+00  0.40000E+00 -0.80000E+00  0.00000E+00  0.00000E+00  0.00000E+00    0.12485E+03  0.13381E+03 -0.25867E+03 -0.12510E+02 -0.72614E+01  0.33074E+02      982.00
  0.79554E+00  0.39557E+03    0.41250E+00  0.41250E+00 -0.82500E+00  0.00000E+00  0.00000E+00  0.00000E+00    0.12674E+03  0.13384E+03 -0.26059E+03 -0.12512E+02 -0.73324E+01  0.31710E+02      982.00
  0.82024E+00  0.39806E+03    0.42500E+00  0.42500E+00 -0.85000E+00  0.00000E+00  0.00000E+00  0.00000E+00    0.12856E+03  0.13392E+03 -0.26249E+03 -0.12485E+02 -0.73828E+01  0.30402E+02      982.00
  0.84497E+00  0.40055E+03    0.43750E+00  0.43750E+00 -0.87500E+00  0.00000E+00  0.00000E+00  0.00000E+00    0.13035E+03  0.13402E+03 -0.26436E+03 -0.12427E+02 -0.74146E+01  0.29160E+02      982.00
  0.86972E+00  0.40301E+03    0.45000E+00  0.45000E+00 -0.90000E+00  0.00000E+00  0.00000E+00  0.00000E+00    0.13201E+03  0.13420E+03 -0.26621E+03 -0.12353E+02 -0.74270E+01  0.27951E+02      982.00
  0.89449E+00  0.40548E+03    0.46250E+00  0.46250E+00 -0.92500E+00  0.00000E+00  0.00000E+00  0.00000E+00    0.13362E+03  0.13441E+03 -0.26803E+03 -0.12260E+02 -0.74281E+01  0.26802E+02      982.00
  0.91928E+00  0.40796E+03    0.47500E+00  0.47500E+00 -0.95000E+00  0.00000E+00  0.00000E+00  0.00000E+00    0.13517E+03  0.13468E+03 -0.26985E+03 -0.12150E+02 -0.74307E+01  0.25696E+02      982.00
  0.94408E+00  0.41042E+03    0.48750E+00  0.48750E+00 -0.97500E+00  0.00000E+00  0.00000E+00  0.00000E+00    0.13663E+03  0.13501E+03 -0.27164E+03 -0.12032E+02 -0.74191E+01  0.24630E+02      982.00
  0.96890E+00  0.41276E+03    0.50000E+00  0.50000E+00 -0.10000E+01  0.00000E+00  0.00000E+00  0.00000E+00    0.13795E+03  0.13538E+03 -0.27334E+03 -0.11903E+02 -0.73695E+01  0.23601E+02      982.00
