          Evm          Svm            E11          E22          E33          E23          E13          E12         SDEV11       SDEV22       SDEV33       SDEV23       SDEV13       SDEV12      TEMP
  0.00000E+00  0.17529E+03    0.00000E+00  0.00000E+00  0.00000E+00  0.00000E+00  0.00000E+00  0.00000E+00    0.57378E+02  0.48237E+02 -0.10561E+03 -0.79920E+01 -0.93670E+01  0.41281E+02      982.00
  0.22594E-01  0.17659E+03    0.12500E-01  0.12500E-01 -0.25000E-01  0.00000E+00  0.00000E+00  0.00000E+00    0.55961E+02  0.49936E+02 -0.10590E+03 -0.66610E+01 -0.71527E+01  0.43359E+02      982.00
  0.45081E-01  0.17682E+03    0.25000E-01  0.25000E-01 -0.50000E-01  0.00000E+00  0.00000E+00  0.00000E+00    0.54061E+02  0.51527E+02 -0.10559E+03 -0.55254E+01 -0.57659E+01  0.44657E+02      982.00
  0.67475E-01  0.18375E+03    0.37500E-01  0.37500E-01 -0.75000E-01  0.00000E+00  0.00000E+00  0.00000E+00    0.54090E+02  0.54019E+02 -0.10811E+03 -0.50728E+01 -0.51279E+01  0.49370E+02      982.00
  0.89538E-01  0.19804E+03    0.50000E-01  0.50000E-01 -0.10000E+00  0.00000E+00  0.00000E+00  0.00000E+00    0.55898E+02  0.57719E+02 -0.11362E+03 -0.51059E+01 -0.49256E+01  0.57802E+02      982.00
  0.11105E+00  0.22099E+03    0.62500E-01  0.62500E-01 -0.12500E+00  0.00000E+00  0.00000E+00  0.00000E+00    0.59480E+02  0.62972E+02 -0.12245E+03 -0.55431E+01 -0.50477E+01  0.70522E+02      982.00
  0.13183E+00  0.25434E+03    0.75000E-01  0.75000E-01 -0.15000E+00  0.00000E+00  0.00000E+00  0.00000E+00    0.64938E+02  0.70158E+02 -0.13510E+03 -0.63222E+01 -0.54453E+01  0.88313E+02      982.00
  0.15175E+00  0.29833E+03    0.87500E-01  0.87500E-01 -0.17500E+00  0.00000E+00  0.00000E+00  0.00000E+00    0.72130E+02  0.79322E+02 -0.15145E+03 -0.73417E+01 -0.60667E+01  0.11117E+03      982.00
  0.17079E+00  0.34766E+03    0.10000E+00  0.10000E+00 -0.20000E+00  0.00000E+00  0.00000E+00  0.00000E+00    0.80072E+02  0.89458E+02 -0.16953E+03 -0.83985E+01 -0.67591E+01  0.13636E+03      982.00
  0.18907E+00  0.39346E+03    0.11250E+00  0.11250E+00 -0.22500E+00  0.00000E+00  0.00000E+00  0.00000E+00    0.87323E+02  0.98880E+02 -0.18620E+03 -0.92824E+01 -0.73393E+01  0.15945E+03      982.00
  0.20682E+00  0.43088E+03    0.12500E+00  0.12500E+00 -0.25000E+00  0.00000E+00  0.00000E+00  0.00000E+00    0.93191E+02  0.10664E+03 -0.19983E+03 -0.99282E+01 -0.77419E+01  0.17814E+03      982.00
  0.22421E+00  0.45979E+03    0.13750E+00  0.13750E+00 -0.27500E+00  0.00000E+00  0.00000E+00  0.00000E+00    0.97709E+02  0.11269E+03 -0.21040E+03 -0.10368E+02 -0.79916E+01  0.19246E+03      982.00
  0.24137E+00  0.48222E+03    0.15000E+00  0.15000E+00 -0.30000E+00  0.00000E+00  0.00000E+00  0.00000E+00    0.10123E+03  0.11741E+03 -0.21863E+03 -0.10652E+02 -0.81383E+01  0.20351E+03      982.00
  0.25837E+00  0.49966E+03    0.16250E+00  0.16250E+00 -0.32500E+00  0.00000E+00  0.00000E+00  0.00000E+00    0.10398E+03  0.12109E+03 -0.22506E+03 -0.10818E+02 -0.82133E+01  0.21207E+03      982.00
  0.27526E+00  0.51334E+03    0.17500E+00  0.17500E+00 -0.35000E+00  0.00000E+00  0.00000E+00  0.00000E+00    0.10614E+03  0.12397E+03 -0.23011E+03 -0.10888E+02 -0.82381E+01  0.21878E+03      982.00
  0.29207E+00  0.52438E+03    0.18750E+00  0.18750E+00 -0.37500E+00  0.00000E+00  0.00000E+00  0.00000E+00    0.10788E+03  0.12628E+03 -0.23416E+03 -0.10875E+02 -0.82303E+01  0.22419E+03      982.00
  0.30882E+00  0.53358E+03    0.20000E+00  0.20000E+00 -0.40000E+00  0.00000E+00  0.00000E+00  0.00000E+00    0.10933E+03  0.12818E+03 -0.23751E+03 -0.10784E+02 -0.82023E+01  0.22874E+03      982.00
  0.32551E+00  0.54107E+03    0.21250E+00  0.21250E+00 -0.42500E+00  0.00000E+00  0.00000E+00  0.00000E+00    0.11051E+03  0.12971E+03 -0.24022E+03 -0.10655E+02 -0.81577E+01  0.23245E+03      982.00
  0.34216E+00  0.54657E+03    0.22500E+00  0.22500E+00 -0.45000E+00  0.00000E+00  0.00000E+00  0.00000E+00    0.11141E+03  0.13085E+03 -0.24225E+03 -0.10520E+02 -0.80834E+01  0.23515E+03      982.00
  0.35878E+00  0.55241E+03    0.23750E+00  0.23750E+00 -0.47500E+00  0.00000E+00  0.00000E+00  0.00000E+00    0.11233E+03  0.13195E+03 -0.24429E+03 -0.10304E+02 -0.80236E+01  0.23810E+03      982.00
  0.37536E+00  0.55660E+03    0.25000E+00  0.25000E+00 -0.50000E+00  0.00000E+00  0.00000E+00  0.00000E+00    0.11302E+03  0.13277E+03 -0.24579E+03 -0.10098E+02 -0.79409E+01  0.24020E+03      982.00
  0.39192E+00  0.56024E+03    0.26250E+00  0.26250E+00 -0.52500E+00  0.00000E+00  0.00000E+00  0.00000E+00    0.11364E+03  0.13344E+03 -0.24708E+03 -0.98697E+01 -0.78531E+01  0.24204E+03      982.00
  0.40846E+00  0.56343E+03    0.27500E+00  0.27500E+00 -0.55000E+00  0.00000E+00  0.00000E+00  0.00000E+00    0.11418E+03  0.13401E+03 -0.24819E+03 -0.96254E+01 -0.77605E+01  0.24366E+03      982.00
  0.42498E+00  0.56624E+03    0.28750E+00  0.28750E+00 -0.57500E+00  0.00000E+00  0.00000E+00  0.00000E+00    0.11467E+03  0.13448E+03 -0.24916E+03 -0.93698E+01 -0.76640E+01  0.24509E+03      982.00
  0.44148E+00  0.56933E+03    0.30000E+00  0.30000E+00 -0.60000E+00  0.00000E+00  0.00000E+00  0.00000E+00    0.11525E+03  0.13496E+03 -0.25021E+03 -0.90904E+01 -0.75672E+01  0.24669E+03      982.00
  0.45796E+00  0.56886E+03    0.31250E+00  0.31250E+00 -0.62500E+00  0.00000E+00  0.00000E+00  0.00000E+00    0.11531E+03  0.13465E+03 -0.24996E+03 -0.86887E+01 -0.73363E+01  0.24655E+03      982.00
  0.47444E+00  0.56907E+03    0.32500E+00  0.32500E+00 -0.65000E+00  0.00000E+00  0.00000E+00  0.00000E+00    0.11542E+03  0.13449E+03 -0.24991E+03 -0.83907E+01 -0.71966E+01  0.24676E+03      982.00
  0.49091E+00  0.56913E+03    0.33750E+00  0.33750E+00 -0.67500E+00  0.00000E+00  0.00000E+00  0.00000E+00    0.11554E+03  0.13428E+03 -0.24982E+03 -0.81241E+01 -0.70737E+01  0.24690E+03      982.00
  0.50737E+00  0.56921E+03    0.35000E+00  0.35000E+00 -0.70000E+00  0.00000E+00  0.00000E+00  0.00000E+00    0.11560E+03  0.13414E+03 -0.24974E+03 -0.78452E+01 -0.69396E+01  0.24704E+03      982.00
  0.52382E+00  0.56928E+03    0.36250E+00  0.36250E+00 -0.72500E+00  0.00000E+00  0.00000E+00  0.00000E+00    0.11566E+03  0.13401E+03 -0.24967E+03 -0.75737E+01 -0.68056E+01  0.24716E+03      982.00
  0.54027E+00  0.56934E+03    0.37500E+00  0.37500E+00 -0.75000E+00  0.00000E+00  0.00000E+00  0.00000E+00    0.11572E+03  0.13389E+03 -0.24960E+03 -0.73120E+01 -0.66743E+01  0.24727E+03      982.00
  0.55671E+00  0.56939E+03    0.38750E+00  0.38750E+00 -0.77500E+00  0.00000E+00  0.00000E+00  0.00000E+00    0.11578E+03  0.13376E+03 -0.24954E+03 -0.70596E+01 -0.65453E+01  0.24737E+03      982.00
  0.57314E+00  0.56944E+03    0.40000E+00  0.40000E+00 -0.80000E+00  0.00000E+00  0.00000E+00  0.00000E+00    0.11584E+03  0.13365E+03 -0.24948E+03 -0.68162E+01 -0.64184E+01  0.24747E+03      982.00
  0.58957E+00  0.56949E+03    0.41250E+00  0.41250E+00 -0.82500E+00  0.00000E+00  0.00000E+00  0.00000E+00    0.11590E+03  0.13353E+03 -0.24943E+03 -0.65816E+01 -0.62935E+01  0.24755E+03      982.00
  0.60600E+00  0.56952E+03    0.42500E+00  0.42500E+00 -0.85000E+00  0.00000E+00  0.00000E+00  0.00000E+00    0.11596E+03  0.13342E+03 -0.24938E+03 -0.63555E+01 -0.61705E+01  0.24763E+03      982.00
  0.62242E+00  0.56956E+03    0.43750E+00  0.43750E+00 -0.87500E+00  0.00000E+00  0.00000E+00  0.00000E+00    0.11603E+03  0.13331E+03 -0.24934E+03 -0.61375E+01 -0.60493E+01  0.24771E+03      982.00
  0.63883E+00  0.56959E+03    0.45000E+00  0.45000E+00 -0.90000E+00  0.00000E+00  0.00000E+00  0.00000E+00    0.11609E+03  0.13320E+03 -0.24929E+03 -0.59273E+01 -0.59300E+01  0.24777E+03      982.00
  0.65525E+00  0.56962E+03    0.46250E+00  0.46250E+00 -0.92500E+00  0.00000E+00  0.00000E+00  0.00000E+00    0.11616E+03  0.13310E+03 -0.24925E+03 -0.57248E+01 -0.58125E+01  0.24783E+03      982.00
  0.67166E+00  0.56965E+03    0.47500E+00  0.47500E+00 -0.95000E+00  0.00000E+00  0.00000E+00  0.00000E+00    0.11622E+03  0.13300E+03 -0.24922E+03 -0.55294E+01 -0.56969E+01  0.24789E+03      982.00
  0.68806E+00  0.56967E+03    0.48750E+00  0.48750E+00 -0.97500E+00  0.00000E+00  0.00000E+00  0.00000E+00    0.11629E+03  0.13290E+03 -0.24919E+03 -0.53411E+01 -0.55832E+01  0.24794E+03      982.00
  0.70447E+00  0.56970E+03    0.50000E+00  0.50000E+00 -0.10000E+01  0.00000E+00  0.00000E+00  0.00000E+00    0.11636E+03  0.13280E+03 -0.24916E+03 -0.51594E+01 -0.54713E+01  0.24799E+03      982.00
