          Evm          Svm            E11          E22          E33          E23          E13          E12         SDEV11       SDEV22       SDEV33       SDEV23       SDEV13       SDEV12      TEMP
  0.00000E+00  0.18037E+03    0.00000E+00  0.00000E+00  0.00000E+00  0.00000E+00  0.00000E+00  0.00000E+00    0.56755E+02  0.57354E+02 -0.11411E+03 -0.15667E+02 -0.13114E+02  0.25707E+02      982.00
  0.23724E-01  0.17954E+03    0.12500E-01  0.12500E-01 -0.25000E-01  0.00000E+00  0.00000E+00  0.00000E+00    0.56207E+02  0.57183E+02 -0.11339E+03 -0.14402E+02 -0.12159E+02  0.27326E+02      982.00
  0.47408E-01  0.18255E+03    0.25000E-01  0.25000E-01 -0.50000E-01  0.00000E+00  0.00000E+00  0.00000E+00    0.56588E+02  0.58138E+02 -0.11473E+03 -0.13649E+02 -0.11566E+02  0.30271E+02      982.00
  0.70975E-01  0.19080E+03    0.37500E-01  0.37500E-01 -0.75000E-01  0.00000E+00  0.00000E+00  0.00000E+00    0.58199E+02  0.60594E+02 -0.11879E+03 -0.13253E+02 -0.11202E+02  0.35339E+02      982.00
  0.94322E-01  0.20767E+03    0.50000E-01  0.50000E-01 -0.10000E+00  0.00000E+00  0.00000E+00  0.00000E+00    0.61753E+02  0.65395E+02 -0.12715E+03 -0.13159E+02 -0.11040E+02  0.44177E+02      982.00
  0.11728E+00  0.24044E+03    0.62500E-01  0.62500E-01 -0.12500E+00  0.00000E+00  0.00000E+00  0.00000E+00    0.68646E+02  0.74265E+02 -0.14291E+03 -0.13306E+02 -0.11074E+02  0.60373E+02      982.00
  0.13957E+00  0.26470E+03    0.75000E-01  0.75000E-01 -0.15000E+00  0.00000E+00  0.00000E+00  0.00000E+00    0.73254E+02  0.80830E+02 -0.15408E+03 -0.12819E+02 -0.10607E+02  0.72513E+02      982.00
  0.16140E+00  0.26488E+03    0.87500E-01  0.87500E-01 -0.17500E+00  0.00000E+00  0.00000E+00  0.00000E+00    0.72915E+02  0.81067E+02 -0.15398E+03 -0.11683E+02 -0.95435E+01  0.73215E+02      982.00
  0.18320E+00  0.28340E+03    0.10000E+00  0.10000E+00 -0.20000E+00  0.00000E+00  0.00000E+00  0.00000E+00    0.76583E+02  0.85731E+02 -0.16231E+03 -0.10799E+02 -0.87068E+01  0.82459E+02      982.00
  0.20468E+00  0.31280E+03    0.11250E+00  0.11250E+00 -0.22500E+00  0.00000E+00  0.00000E+00  0.00000E+00    0.82490E+02  0.93029E+02 -0.17552E+03 -0.10212E+02 -0.81638E+01  0.96492E+02      982.00
  0.22572E+00  0.34321E+03    0.12500E+00  0.12500E+00 -0.25000E+00  0.00000E+00  0.00000E+00  0.00000E+00    0.88601E+02  0.10056E+03 -0.18916E+03 -0.97130E+01 -0.77197E+01  0.11064E+03      982.00
  0.24639E+00  0.36908E+03    0.13750E+00  0.13750E+00 -0.27500E+00  0.00000E+00  0.00000E+00  0.00000E+00    0.93846E+02  0.10701E+03 -0.20085E+03 -0.92057E+01 -0.72820E+01  0.12234E+03      982.00
  0.26679E+00  0.38899E+03    0.15000E+00  0.15000E+00 -0.30000E+00  0.00000E+00  0.00000E+00  0.00000E+00    0.97983E+02  0.11207E+03 -0.21006E+03 -0.86876E+01 -0.68445E+01  0.13105E+03      982.00
  0.28704E+00  0.40383E+03    0.16250E+00  0.16250E+00 -0.32500E+00  0.00000E+00  0.00000E+00  0.00000E+00    0.10118E+03  0.11596E+03 -0.21714E+03 -0.81650E+01 -0.64083E+01  0.13723E+03      982.00
  0.30721E+00  0.41460E+03    0.17500E+00  0.17500E+00 -0.35000E+00  0.00000E+00  0.00000E+00  0.00000E+00    0.10364E+03  0.11891E+03 -0.22255E+03 -0.76406E+01 -0.59738E+01  0.14141E+03      982.00
  0.32734E+00  0.42218E+03    0.18750E+00  0.18750E+00 -0.37500E+00  0.00000E+00  0.00000E+00  0.00000E+00    0.10552E+03  0.12114E+03 -0.22666E+03 -0.71234E+01 -0.55470E+01  0.14400E+03      982.00
  0.34747E+00  0.42723E+03    0.20000E+00  0.20000E+00 -0.40000E+00  0.00000E+00  0.00000E+00  0.00000E+00    0.10694E+03  0.12280E+03 -0.22974E+03 -0.66068E+01 -0.51207E+01  0.14534E+03      982.00
  0.36764E+00  0.43034E+03    0.21250E+00  0.21250E+00 -0.42500E+00  0.00000E+00  0.00000E+00  0.00000E+00    0.10802E+03  0.12406E+03 -0.23207E+03 -0.61307E+01 -0.47291E+01  0.14564E+03      982.00
  0.38786E+00  0.43137E+03    0.22500E+00  0.22500E+00 -0.45000E+00  0.00000E+00  0.00000E+00  0.00000E+00    0.10876E+03  0.12491E+03 -0.23368E+03 -0.57750E+01 -0.44470E+01  0.14475E+03      982.00
  0.40817E+00  0.43133E+03    0.23750E+00  0.23750E+00 -0.47500E+00  0.00000E+00  0.00000E+00  0.00000E+00    0.10936E+03  0.12545E+03 -0.23480E+03 -0.52919E+01 -0.40536E+01  0.14337E+03      982.00
  0.42859E+00  0.42713E+03    0.25000E+00  0.25000E+00 -0.50000E+00  0.00000E+00  0.00000E+00  0.00000E+00    0.10911E+03  0.12486E+03 -0.23397E+03 -0.49544E+01 -0.37796E+01  0.14020E+03      982.00
  0.44913E+00  0.42276E+03    0.26250E+00  0.26250E+00 -0.52500E+00  0.00000E+00  0.00000E+00  0.00000E+00    0.10880E+03  0.12430E+03 -0.23310E+03 -0.46508E+01 -0.35362E+01  0.13684E+03      982.00
  0.46981E+00  0.41828E+03    0.27500E+00  0.27500E+00 -0.55000E+00  0.00000E+00  0.00000E+00  0.00000E+00    0.10848E+03  0.12375E+03 -0.23223E+03 -0.43885E+01 -0.33322E+01  0.13335E+03      982.00
  0.49063E+00  0.41351E+03    0.28750E+00  0.28750E+00 -0.57500E+00  0.00000E+00  0.00000E+00  0.00000E+00    0.10813E+03  0.12316E+03 -0.23129E+03 -0.41890E+01 -0.31884E+01  0.12958E+03      982.00
  0.51160E+00  0.40895E+03    0.30000E+00  0.30000E+00 -0.60000E+00  0.00000E+00  0.00000E+00  0.00000E+00    0.10782E+03  0.12261E+03 -0.23043E+03 -0.40109E+01 -0.30649E+01  0.12586E+03      982.00
  0.53273E+00  0.40449E+03    0.31250E+00  0.31250E+00 -0.62500E+00  0.00000E+00  0.00000E+00  0.00000E+00    0.10753E+03  0.12210E+03 -0.22963E+03 -0.38594E+01 -0.29665E+01  0.12212E+03      982.00
  0.55402E+00  0.39997E+03    0.32500E+00  0.32500E+00 -0.65000E+00  0.00000E+00  0.00000E+00  0.00000E+00    0.10726E+03  0.12158E+03 -0.22883E+03 -0.37650E+01 -0.29227E+01  0.11823E+03      982.00
  0.57548E+00  0.39556E+03    0.33750E+00  0.33750E+00 -0.67500E+00  0.00000E+00  0.00000E+00  0.00000E+00    0.10701E+03  0.12108E+03 -0.22809E+03 -0.37104E+01 -0.29165E+01  0.11430E+03      982.00
  0.59710E+00  0.39118E+03    0.35000E+00  0.35000E+00 -0.70000E+00  0.00000E+00  0.00000E+00  0.00000E+00    0.10678E+03  0.12060E+03 -0.22737E+03 -0.37056E+01 -0.29578E+01  0.11029E+03      982.00
  0.61890E+00  0.38708E+03    0.36250E+00  0.36250E+00 -0.72500E+00  0.00000E+00  0.00000E+00  0.00000E+00    0.10660E+03  0.12016E+03 -0.22677E+03 -0.37257E+01 -0.30219E+01  0.10633E+03      982.00
  0.64087E+00  0.38318E+03    0.37500E+00  0.37500E+00 -0.75000E+00  0.00000E+00  0.00000E+00  0.00000E+00    0.10647E+03  0.11977E+03 -0.22624E+03 -0.37793E+01 -0.31173E+01  0.10240E+03      982.00
  0.66301E+00  0.37937E+03    0.38750E+00  0.38750E+00 -0.77500E+00  0.00000E+00  0.00000E+00  0.00000E+00    0.10637E+03  0.11939E+03 -0.22576E+03 -0.38937E+01 -0.32714E+01  0.98396E+02      982.00
  0.68532E+00  0.37600E+03    0.40000E+00  0.40000E+00 -0.80000E+00  0.00000E+00  0.00000E+00  0.00000E+00    0.10634E+03  0.11909E+03 -0.22543E+03 -0.40016E+01 -0.34169E+01  0.94566E+02      982.00
  0.70781E+00  0.37291E+03    0.41250E+00  0.41250E+00 -0.82500E+00  0.00000E+00  0.00000E+00  0.00000E+00    0.10637E+03  0.11884E+03 -0.22521E+03 -0.41324E+01 -0.35833E+01  0.90807E+02      982.00
  0.73045E+00  0.37011E+03    0.42500E+00  0.42500E+00 -0.85000E+00  0.00000E+00  0.00000E+00  0.00000E+00    0.10645E+03  0.11864E+03 -0.22509E+03 -0.42820E+01 -0.37666E+01  0.87133E+02      982.00
  0.75326E+00  0.36763E+03    0.43750E+00  0.43750E+00 -0.87500E+00  0.00000E+00  0.00000E+00  0.00000E+00    0.10659E+03  0.11849E+03 -0.22509E+03 -0.44464E+01 -0.39627E+01  0.83556E+02      982.00
  0.77622E+00  0.36545E+03    0.45000E+00  0.45000E+00 -0.90000E+00  0.00000E+00  0.00000E+00  0.00000E+00    0.10679E+03  0.11840E+03 -0.22519E+03 -0.46215E+01 -0.41676E+01  0.80084E+02      982.00
  0.79933E+00  0.36366E+03    0.46250E+00  0.46250E+00 -0.92500E+00  0.00000E+00  0.00000E+00  0.00000E+00    0.10705E+03  0.11839E+03 -0.22544E+03 -0.47917E+01 -0.43662E+01  0.76754E+02      982.00
  0.82257E+00  0.36193E+03    0.47500E+00  0.47500E+00 -0.95000E+00  0.00000E+00  0.00000E+00  0.00000E+00    0.10731E+03  0.11836E+03 -0.22568E+03 -0.50063E+01 -0.46067E+01  0.73415E+02      982.00
  0.84596E+00  0.36068E+03    0.48750E+00  0.48750E+00 -0.97500E+00  0.00000E+00  0.00000E+00  0.00000E+00    0.10766E+03  0.11844E+03 -0.22610E+03 -0.51882E+01 -0.48135E+01  0.70303E+02      982.00
  0.86946E+00  0.35971E+03    0.50000E+00  0.50000E+00 -0.10000E+01  0.00000E+00  0.00000E+00  0.00000E+00    0.10806E+03  0.11857E+03 -0.22662E+03 -0.53671E+01 -0.50158E+01  0.67314E+02      982.00
