          Evm          Svm            E11          E22          E33          E23          E13          E12         SDEV11       SDEV22       SDEV33       SDEV23       SDEV13       SDEV12      TEMP
  0.00000E+00  0.17063E+03    0.00000E+00  0.00000E+00  0.00000E+00  0.00000E+00  0.00000E+00  0.00000E+00    0.53991E+02  0.49152E+02 -0.10314E+03 -0.21666E+01 -0.54916E+01  0.41051E+02      982.00
  0.22668E-01  0.17215E+03    0.12500E-01  0.12500E-01 -0.25000E-01  0.00000E+00  0.00000E+00  0.00000E+00    0.52963E+02  0.50431E+02 -0.10339E+03 -0.16336E+01 -0.44965E+01  0.42847E+02      982.00
  0.45191E-01  0.17829E+03    0.25000E-01  0.25000E-01 -0.50000E-01  0.00000E+00  0.00000E+00  0.00000E+00    0.53293E+02  0.52284E+02 -0.10558E+03 -0.14247E+01 -0.39834E+01  0.47092E+02      982.00
  0.67398E-01  0.18962E+03    0.37500E-01  0.37500E-01 -0.75000E-01  0.00000E+00  0.00000E+00  0.00000E+00    0.54837E+02  0.54994E+02 -0.10983E+03 -0.14083E+01 -0.37034E+01  0.54062E+02      982.00
  0.89118E-01  0.20701E+03    0.50000E-01  0.50000E-01 -0.10000E+00  0.00000E+00  0.00000E+00  0.00000E+00    0.57645E+02  0.58753E+02 -0.11640E+03 -0.15970E+01 -0.35824E+01  0.64086E+02      982.00
  0.11020E+00  0.23205E+03    0.62500E-01  0.62500E-01 -0.12500E+00  0.00000E+00  0.00000E+00  0.00000E+00    0.61869E+02  0.63889E+02 -0.12576E+03 -0.19737E+01 -0.35663E+01  0.77912E+02      982.00
  0.13053E+00  0.26629E+03    0.75000E-01  0.75000E-01 -0.15000E+00  0.00000E+00  0.00000E+00  0.00000E+00    0.67655E+02  0.70686E+02 -0.13834E+03 -0.25250E+01 -0.36422E+01  0.96233E+02      982.00
  0.15001E+00  0.30917E+03    0.87500E-01  0.87500E-01 -0.17500E+00  0.00000E+00  0.00000E+00  0.00000E+00    0.74785E+02  0.79060E+02 -0.15385E+03 -0.32027E+01 -0.37913E+01  0.11867E+03      982.00
  0.16867E+00  0.35561E+03    0.10000E+00  0.10000E+00 -0.20000E+00  0.00000E+00  0.00000E+00  0.00000E+00    0.82310E+02  0.88131E+02 -0.17044E+03 -0.39163E+01 -0.39580E+01  0.14257E+03      982.00
  0.18664E+00  0.39824E+03    0.11250E+00  0.11250E+00 -0.22500E+00  0.00000E+00  0.00000E+00  0.00000E+00    0.89023E+02  0.96592E+02 -0.18561E+03 -0.45692E+01 -0.40756E+01  0.16423E+03      982.00
  0.20412E+00  0.43344E+03    0.12500E+00  0.12500E+00 -0.25000E+00  0.00000E+00  0.00000E+00  0.00000E+00    0.94433E+02  0.10374E+03 -0.19818E+03 -0.51170E+01 -0.41245E+01  0.18194E+03      982.00
  0.22127E+00  0.46101E+03    0.13750E+00  0.13750E+00 -0.27500E+00  0.00000E+00  0.00000E+00  0.00000E+00    0.98616E+02  0.10947E+03 -0.20808E+03 -0.55599E+01 -0.41178E+01  0.19568E+03      982.00
  0.23819E+00  0.48319E+03    0.15000E+00  0.15000E+00 -0.30000E+00  0.00000E+00  0.00000E+00  0.00000E+00    0.10193E+03  0.11418E+03 -0.21611E+03 -0.58919E+01 -0.40826E+01  0.20666E+03      982.00
  0.25496E+00  0.50050E+03    0.16250E+00  0.16250E+00 -0.32500E+00  0.00000E+00  0.00000E+00  0.00000E+00    0.10453E+03  0.11792E+03 -0.22245E+03 -0.61420E+01 -0.40293E+01  0.21514E+03      982.00
  0.27163E+00  0.51422E+03    0.17500E+00  0.17500E+00 -0.35000E+00  0.00000E+00  0.00000E+00  0.00000E+00    0.10660E+03  0.12093E+03 -0.22753E+03 -0.63130E+01 -0.39728E+01  0.22183E+03      982.00
  0.28822E+00  0.52529E+03    0.18750E+00  0.18750E+00 -0.37500E+00  0.00000E+00  0.00000E+00  0.00000E+00    0.10828E+03  0.12338E+03 -0.23166E+03 -0.64141E+01 -0.39209E+01  0.22719E+03      982.00
  0.30476E+00  0.53432E+03    0.20000E+00  0.20000E+00 -0.40000E+00  0.00000E+00  0.00000E+00  0.00000E+00    0.10967E+03  0.12539E+03 -0.23506E+03 -0.64549E+01 -0.38776E+01  0.23153E+03      982.00
  0.32126E+00  0.54178E+03    0.21250E+00  0.21250E+00 -0.42500E+00  0.00000E+00  0.00000E+00  0.00000E+00    0.11083E+03  0.12705E+03 -0.23789E+03 -0.64447E+01 -0.38439E+01  0.23511E+03      982.00
  0.33773E+00  0.54806E+03    0.22500E+00  0.22500E+00 -0.45000E+00  0.00000E+00  0.00000E+00  0.00000E+00    0.11182E+03  0.12845E+03 -0.24027E+03 -0.63894E+01 -0.38240E+01  0.23812E+03      982.00
  0.35417E+00  0.55307E+03    0.23750E+00  0.23750E+00 -0.47500E+00  0.00000E+00  0.00000E+00  0.00000E+00    0.11266E+03  0.12957E+03 -0.24223E+03 -0.63175E+01 -0.37977E+01  0.24048E+03      982.00
  0.37059E+00  0.55735E+03    0.25000E+00  0.25000E+00 -0.50000E+00  0.00000E+00  0.00000E+00  0.00000E+00    0.11340E+03  0.13051E+03 -0.24390E+03 -0.62168E+01 -0.37794E+01  0.24250E+03      982.00
  0.38700E+00  0.56104E+03    0.26250E+00  0.26250E+00 -0.52500E+00  0.00000E+00  0.00000E+00  0.00000E+00    0.11405E+03  0.13130E+03 -0.24535E+03 -0.60939E+01 -0.37667E+01  0.24423E+03      982.00
  0.40340E+00  0.56433E+03    0.27500E+00  0.27500E+00 -0.55000E+00  0.00000E+00  0.00000E+00  0.00000E+00    0.11463E+03  0.13199E+03 -0.24662E+03 -0.59486E+01 -0.37615E+01  0.24579E+03      982.00
  0.41979E+00  0.56706E+03    0.28750E+00  0.28750E+00 -0.57500E+00  0.00000E+00  0.00000E+00  0.00000E+00    0.11514E+03  0.13256E+03 -0.24771E+03 -0.57983E+01 -0.37544E+01  0.24707E+03      982.00
  0.43617E+00  0.57006E+03    0.30000E+00  0.30000E+00 -0.60000E+00  0.00000E+00  0.00000E+00  0.00000E+00    0.11570E+03  0.13315E+03 -0.24885E+03 -0.56312E+01 -0.37593E+01  0.24850E+03      982.00
  0.45254E+00  0.56909E+03    0.31250E+00  0.31250E+00 -0.62500E+00  0.00000E+00  0.00000E+00  0.00000E+00    0.11579E+03  0.13277E+03 -0.24856E+03 -0.52947E+01 -0.36551E+01  0.24800E+03      982.00
  0.46892E+00  0.56927E+03    0.32500E+00  0.32500E+00 -0.65000E+00  0.00000E+00  0.00000E+00  0.00000E+00    0.11596E+03  0.13267E+03 -0.24863E+03 -0.51040E+01 -0.36296E+01  0.24810E+03      982.00
  0.48530E+00  0.56923E+03    0.33750E+00  0.33750E+00 -0.67500E+00  0.00000E+00  0.00000E+00  0.00000E+00    0.11606E+03  0.13256E+03 -0.24861E+03 -0.49159E+01 -0.36056E+01  0.24808E+03      982.00
  0.50167E+00  0.56922E+03    0.35000E+00  0.35000E+00 -0.70000E+00  0.00000E+00  0.00000E+00  0.00000E+00    0.11612E+03  0.13250E+03 -0.24862E+03 -0.48235E+01 -0.36090E+01  0.24808E+03      982.00
  0.51805E+00  0.56916E+03    0.36250E+00  0.36250E+00 -0.72500E+00  0.00000E+00  0.00000E+00  0.00000E+00    0.11620E+03  0.13239E+03 -0.24859E+03 -0.45599E+01 -0.35565E+01  0.24806E+03      982.00
  0.53443E+00  0.56912E+03    0.37500E+00  0.37500E+00 -0.75000E+00  0.00000E+00  0.00000E+00  0.00000E+00    0.11628E+03  0.13229E+03 -0.24857E+03 -0.43879E+01 -0.35297E+01  0.24805E+03      982.00
  0.55081E+00  0.56909E+03    0.38750E+00  0.38750E+00 -0.77500E+00  0.00000E+00  0.00000E+00  0.00000E+00    0.11635E+03  0.13221E+03 -0.24856E+03 -0.42262E+01 -0.35035E+01  0.24804E+03      982.00
  0.56719E+00  0.56907E+03    0.40000E+00  0.40000E+00 -0.80000E+00  0.00000E+00  0.00000E+00  0.00000E+00    0.11642E+03  0.13213E+03 -0.24855E+03 -0.40704E+01 -0.34766E+01  0.24804E+03      982.00
  0.58357E+00  0.56904E+03    0.41250E+00  0.41250E+00 -0.82500E+00  0.00000E+00  0.00000E+00  0.00000E+00    0.11649E+03  0.13205E+03 -0.24853E+03 -0.39208E+01 -0.34487E+01  0.24804E+03      982.00
  0.59995E+00  0.56902E+03    0.42500E+00  0.42500E+00 -0.85000E+00  0.00000E+00  0.00000E+00  0.00000E+00    0.11655E+03  0.13197E+03 -0.24852E+03 -0.37773E+01 -0.34198E+01  0.24803E+03      982.00
  0.61632E+00  0.56901E+03    0.43750E+00  0.43750E+00 -0.87500E+00  0.00000E+00  0.00000E+00  0.00000E+00    0.11662E+03  0.13190E+03 -0.24851E+03 -0.36397E+01 -0.33900E+01  0.24803E+03      982.00
  0.63270E+00  0.56898E+03    0.45000E+00  0.45000E+00 -0.90000E+00  0.00000E+00  0.00000E+00  0.00000E+00    0.11669E+03  0.13181E+03 -0.24850E+03 -0.35862E+01 -0.33727E+01  0.24803E+03      982.00
  0.64908E+00  0.56897E+03    0.46250E+00  0.46250E+00 -0.92500E+00  0.00000E+00  0.00000E+00  0.00000E+00    0.11675E+03  0.13174E+03 -0.24849E+03 -0.34594E+01 -0.33420E+01  0.24803E+03      982.00
  0.66546E+00  0.56896E+03    0.47500E+00  0.47500E+00 -0.95000E+00  0.00000E+00  0.00000E+00  0.00000E+00    0.11681E+03  0.13167E+03 -0.24848E+03 -0.33311E+01 -0.33088E+01  0.24804E+03      982.00
  0.68183E+00  0.56896E+03    0.48750E+00  0.48750E+00 -0.97500E+00  0.00000E+00  0.00000E+00  0.00000E+00    0.11688E+03  0.13159E+03 -0.24847E+03 -0.32083E+01 -0.32749E+01  0.24804E+03      982.00
  0.69821E+00  0.56895E+03    0.50000E+00  0.50000E+00 -0.10000E+01  0.00000E+00  0.00000E+00  0.00000E+00    0.11694E+03  0.13153E+03 -0.24847E+03 -0.30906E+01 -0.32405E+01  0.24805E+03      982.00
