          Evm          Svm            E11          E22          E33          E23          E13          E12         SDEV11       SDEV22       SDEV33       SDEV23       SDEV13       SDEV12      TEMP
  0.00000E+00  0.20284E+03    0.00000E+00  0.00000E+00  0.00000E+00  0.00000E+00  0.00000E+00  0.00000E+00    0.62406E+02  0.72145E+02 -0.13455E+03 -0.56091E+01  0.32409E+01 -0.84384E+01      982.00
  0.24875E-01  0.19321E+03    0.12500E-01  0.12500E-01 -0.25000E-01  0.00000E+00  0.00000E+00  0.00000E+00    0.59059E+02  0.68990E+02 -0.12805E+03 -0.59474E+01  0.34341E+01 -0.86038E+01      982.00
  0.49728E-01  0.19441E+03    0.25000E-01  0.25000E-01 -0.50000E-01  0.00000E+00  0.00000E+00  0.00000E+00    0.59348E+02  0.69460E+02 -0.12881E+03 -0.62791E+01  0.36261E+01 -0.87606E+01      982.00
  0.74574E-01  0.20662E+03    0.37500E-01  0.37500E-01 -0.75000E-01  0.00000E+00  0.00000E+00  0.00000E+00    0.63320E+02  0.73629E+02 -0.13695E+03 -0.65753E+01  0.37981E+01 -0.89317E+01      982.00
  0.99429E-01  0.23608E+03    0.50000E-01  0.50000E-01 -0.10000E+00  0.00000E+00  0.00000E+00  0.00000E+00    0.73001E+02  0.83634E+02 -0.15663E+03 -0.69004E+01  0.39871E+01 -0.92034E+01      982.00
  0.12431E+00  0.28331E+03    0.62500E-01  0.62500E-01 -0.12500E+00  0.00000E+00  0.00000E+00  0.00000E+00    0.88633E+02  0.99572E+02 -0.18820E+03 -0.72190E+01  0.41723E+01 -0.94234E+01      982.00
  0.14922E+00  0.34995E+03    0.75000E-01  0.75000E-01 -0.15000E+00  0.00000E+00  0.00000E+00  0.00000E+00    0.11125E+03  0.12153E+03 -0.23279E+03 -0.76401E+01  0.44126E+01 -0.86531E+01      982.00
  0.17417E+00  0.42065E+03    0.87500E-01  0.87500E-01 -0.17500E+00  0.00000E+00  0.00000E+00  0.00000E+00    0.13676E+03  0.14337E+03 -0.28013E+03 -0.82840E+01  0.47539E+01 -0.48657E+01      982.00
  0.19914E+00  0.47596E+03    0.10000E+00  0.10000E+00 -0.20000E+00  0.00000E+00  0.00000E+00  0.00000E+00    0.15794E+03  0.15914E+03 -0.31708E+03 -0.90192E+01  0.51001E+01  0.68354E+00      982.00
  0.22412E+00  0.51181E+03    0.11250E+00  0.11250E+00 -0.22500E+00  0.00000E+00  0.00000E+00  0.00000E+00    0.17184E+03  0.16909E+03 -0.34093E+03 -0.95726E+01  0.53480E+01  0.45478E+01      982.00
  0.24910E+00  0.53512E+03    0.12500E+00  0.12500E+00 -0.25000E+00  0.00000E+00  0.00000E+00  0.00000E+00    0.18083E+03  0.17558E+03 -0.35641E+03 -0.99261E+01  0.55147E+01  0.67058E+01      982.00
  0.27408E+00  0.55195E+03    0.13750E+00  0.13750E+00 -0.27500E+00  0.00000E+00  0.00000E+00  0.00000E+00    0.18734E+03  0.18024E+03 -0.36758E+03 -0.10246E+02  0.56874E+01  0.81059E+01      982.00
  0.29905E+00  0.56477E+03    0.15000E+00  0.15000E+00 -0.30000E+00  0.00000E+00  0.00000E+00  0.00000E+00    0.19232E+03  0.18375E+03 -0.37608E+03 -0.10541E+02  0.58647E+01  0.91150E+01      982.00
  0.32402E+00  0.57466E+03    0.16250E+00  0.16250E+00 -0.32500E+00  0.00000E+00  0.00000E+00  0.00000E+00    0.19614E+03  0.18649E+03 -0.38263E+03 -0.10838E+02  0.60579E+01  0.97718E+01      982.00
  0.34899E+00  0.58199E+03    0.17500E+00  0.17500E+00 -0.35000E+00  0.00000E+00  0.00000E+00  0.00000E+00    0.19903E+03  0.18846E+03 -0.38749E+03 -0.11130E+02  0.62600E+01  0.10256E+02      982.00
  0.37396E+00  0.58749E+03    0.18750E+00  0.18750E+00 -0.37500E+00  0.00000E+00  0.00000E+00  0.00000E+00    0.20123E+03  0.18989E+03 -0.39112E+03 -0.11433E+02  0.64756E+01  0.10583E+02      982.00
  0.39892E+00  0.59184E+03    0.20000E+00  0.20000E+00 -0.40000E+00  0.00000E+00  0.00000E+00  0.00000E+00    0.20296E+03  0.19104E+03 -0.39399E+03 -0.11765E+02  0.67124E+01  0.10778E+02      982.00
  0.42389E+00  0.59523E+03    0.21250E+00  0.21250E+00 -0.42500E+00  0.00000E+00  0.00000E+00  0.00000E+00    0.20423E+03  0.19200E+03 -0.39623E+03 -0.12109E+02  0.69580E+01  0.10833E+02      982.00
  0.44885E+00  0.59747E+03    0.22500E+00  0.22500E+00 -0.45000E+00  0.00000E+00  0.00000E+00  0.00000E+00    0.20514E+03  0.19257E+03 -0.39770E+03 -0.12445E+02  0.71981E+01  0.10851E+02      982.00
  0.47381E+00  0.59940E+03    0.23750E+00  0.23750E+00 -0.47500E+00  0.00000E+00  0.00000E+00  0.00000E+00    0.20586E+03  0.19311E+03 -0.39897E+03 -0.12814E+02  0.74565E+01  0.10802E+02      982.00
  0.49877E+00  0.59764E+03    0.25000E+00  0.25000E+00 -0.50000E+00  0.00000E+00  0.00000E+00  0.00000E+00    0.20513E+03  0.19266E+03 -0.39779E+03 -0.13102E+02  0.76631E+01  0.10502E+02      982.00
  0.52373E+00  0.59553E+03    0.26250E+00  0.26250E+00 -0.52500E+00  0.00000E+00  0.00000E+00  0.00000E+00    0.20432E+03  0.19205E+03 -0.39638E+03 -0.13318E+02  0.78237E+01  0.10220E+02      982.00
  0.54869E+00  0.59344E+03    0.27500E+00  0.27500E+00 -0.55000E+00  0.00000E+00  0.00000E+00  0.00000E+00    0.20353E+03  0.19145E+03 -0.39498E+03 -0.13523E+02  0.79752E+01  0.99438E+01      982.00
  0.57365E+00  0.59135E+03    0.28750E+00  0.28750E+00 -0.57500E+00  0.00000E+00  0.00000E+00  0.00000E+00    0.20273E+03  0.19086E+03 -0.39359E+03 -0.13714E+02  0.81155E+01  0.96755E+01      982.00
  0.59861E+00  0.58928E+03    0.30000E+00  0.30000E+00 -0.60000E+00  0.00000E+00  0.00000E+00  0.00000E+00    0.20194E+03  0.19027E+03 -0.39220E+03 -0.13888E+02  0.82447E+01  0.94147E+01      982.00
  0.62357E+00  0.58722E+03    0.31250E+00  0.31250E+00 -0.62500E+00  0.00000E+00  0.00000E+00  0.00000E+00    0.20115E+03  0.18968E+03 -0.39083E+03 -0.14046E+02  0.83627E+01  0.91614E+01      982.00
  0.64853E+00  0.58518E+03    0.32500E+00  0.32500E+00 -0.65000E+00  0.00000E+00  0.00000E+00  0.00000E+00    0.20036E+03  0.18910E+03 -0.38946E+03 -0.14187E+02  0.84698E+01  0.89152E+01      982.00
  0.67349E+00  0.58315E+03    0.33750E+00  0.33750E+00 -0.67500E+00  0.00000E+00  0.00000E+00  0.00000E+00    0.19958E+03  0.18852E+03 -0.38811E+03 -0.14312E+02  0.85662E+01  0.86759E+01      982.00
  0.69844E+00  0.58113E+03    0.35000E+00  0.35000E+00 -0.70000E+00  0.00000E+00  0.00000E+00  0.00000E+00    0.19881E+03  0.18796E+03 -0.38676E+03 -0.14419E+02  0.86523E+01  0.84431E+01      982.00
  0.72340E+00  0.57914E+03    0.36250E+00  0.36250E+00 -0.72500E+00  0.00000E+00  0.00000E+00  0.00000E+00    0.19804E+03  0.18739E+03 -0.38543E+03 -0.14510E+02  0.87284E+01  0.82163E+01      982.00
  0.74836E+00  0.57716E+03    0.37500E+00  0.37500E+00 -0.75000E+00  0.00000E+00  0.00000E+00  0.00000E+00    0.19727E+03  0.18684E+03 -0.38411E+03 -0.14583E+02  0.87949E+01  0.79952E+01      982.00
  0.77332E+00  0.57519E+03    0.38750E+00  0.38750E+00 -0.77500E+00  0.00000E+00  0.00000E+00  0.00000E+00    0.19652E+03  0.18628E+03 -0.38280E+03 -0.14641E+02  0.88521E+01  0.77793E+01      982.00
  0.79827E+00  0.57310E+03    0.40000E+00  0.40000E+00 -0.80000E+00  0.00000E+00  0.00000E+00  0.00000E+00    0.19572E+03  0.18569E+03 -0.38141E+03 -0.14672E+02  0.88949E+01  0.75761E+01      982.00
  0.82323E+00  0.57118E+03    0.41250E+00  0.41250E+00 -0.82500E+00  0.00000E+00  0.00000E+00  0.00000E+00    0.19497E+03  0.18515E+03 -0.38013E+03 -0.14698E+02  0.89353E+01  0.73689E+01      982.00
  0.84819E+00  0.56926E+03    0.42500E+00  0.42500E+00 -0.85000E+00  0.00000E+00  0.00000E+00  0.00000E+00    0.19423E+03  0.18462E+03 -0.37885E+03 -0.14706E+02  0.89666E+01  0.71655E+01      982.00
  0.87314E+00  0.56736E+03    0.43750E+00  0.43750E+00 -0.87500E+00  0.00000E+00  0.00000E+00  0.00000E+00    0.19349E+03  0.18410E+03 -0.37759E+03 -0.14698E+02  0.89896E+01  0.69655E+01      982.00
  0.89810E+00  0.56548E+03    0.45000E+00  0.45000E+00 -0.90000E+00  0.00000E+00  0.00000E+00  0.00000E+00    0.19276E+03  0.18358E+03 -0.37634E+03 -0.14673E+02  0.90042E+01  0.67685E+01      982.00
  0.92306E+00  0.56361E+03    0.46250E+00  0.46250E+00 -0.92500E+00  0.00000E+00  0.00000E+00  0.00000E+00    0.19203E+03  0.18308E+03 -0.37511E+03 -0.14631E+02  0.90102E+01  0.65742E+01      982.00
  0.94802E+00  0.56177E+03    0.47500E+00  0.47500E+00 -0.95000E+00  0.00000E+00  0.00000E+00  0.00000E+00    0.19130E+03  0.18258E+03 -0.37388E+03 -0.14572E+02  0.90076E+01  0.63820E+01      982.00
  0.97297E+00  0.55994E+03    0.48750E+00  0.48750E+00 -0.97500E+00  0.00000E+00  0.00000E+00  0.00000E+00    0.19058E+03  0.18209E+03 -0.37267E+03 -0.14495E+02  0.89959E+01  0.61917E+01      982.00
  0.99793E+00  0.55814E+03    0.50000E+00  0.50000E+00 -0.10000E+01  0.00000E+00  0.00000E+00  0.00000E+00    0.18986E+03  0.18162E+03 -0.37148E+03 -0.14399E+02  0.89746E+01  0.60029E+01      982.00
