          Evm          Svm            E11          E22          E33          E23          E13          E12         SDEV11       SDEV22       SDEV33       SDEV23       SDEV13       SDEV12      TEMP
  0.00000E+00  0.16395E+03    0.00000E+00  0.00000E+00  0.00000E+00  0.00000E+00  0.00000E+00  0.00000E+00    0.51410E+02  0.50934E+02 -0.10234E+03  0.83482E+01  0.38429E+01  0.31934E+02      982.00
  0.23409E-01  0.16268E+03    0.12500E-01  0.12500E-01 -0.25000E-01  0.00000E+00  0.00000E+00  0.00000E+00    0.53503E+02  0.47763E+02 -0.10127E+03  0.79677E+01  0.19735E+01  0.32484E+02      982.00
  0.46752E-01  0.16357E+03    0.25000E-01  0.25000E-01 -0.50000E-01  0.00000E+00  0.00000E+00  0.00000E+00    0.55011E+02  0.46231E+02 -0.10124E+03  0.79495E+01  0.15448E+01  0.33858E+02      982.00
  0.69962E-01  0.16802E+03    0.37500E-01  0.37500E-01 -0.75000E-01  0.00000E+00  0.00000E+00  0.00000E+00    0.56975E+02  0.45933E+02 -0.10291E+03  0.80338E+01  0.17969E+01  0.36998E+02      982.00
  0.92930E-01  0.17702E+03    0.50000E-01  0.50000E-01 -0.10000E+00  0.00000E+00  0.00000E+00  0.00000E+00    0.60053E+02  0.46545E+02 -0.10660E+03  0.82520E+01  0.23261E+01  0.42479E+02      982.00
  0.11551E+00  0.19128E+03    0.62500E-01  0.62500E-01 -0.12500E+00  0.00000E+00  0.00000E+00  0.00000E+00    0.64406E+02  0.48110E+02 -0.11252E+03  0.86485E+01  0.31121E+01  0.50502E+02      982.00
  0.13757E+00  0.21254E+03    0.75000E-01  0.75000E-01 -0.15000E+00  0.00000E+00  0.00000E+00  0.00000E+00    0.70579E+02  0.50665E+02 -0.12124E+03  0.92762E+01  0.41168E+01  0.61891E+02      982.00
  0.15896E+00  0.24271E+03    0.87500E-01  0.87500E-01 -0.17500E+00  0.00000E+00  0.00000E+00  0.00000E+00    0.79039E+02  0.54348E+02 -0.13339E+03  0.10168E+02  0.53673E+01  0.77513E+02      982.00
  0.17957E+00  0.28240E+03    0.10000E+00  0.10000E+00 -0.20000E+00  0.00000E+00  0.00000E+00  0.00000E+00    0.89838E+02  0.59179E+02 -0.14902E+03  0.11287E+02  0.68424E+01  0.97566E+02      982.00
  0.19936E+00  0.32869E+03    0.11250E+00  0.11250E+00 -0.22500E+00  0.00000E+00  0.00000E+00  0.00000E+00    0.10212E+03  0.64795E+02 -0.16691E+03  0.12502E+02  0.83730E+01  0.12060E+03      982.00
  0.21840E+00  0.37329E+03    0.12500E+00  0.12500E+00 -0.25000E+00  0.00000E+00  0.00000E+00  0.00000E+00    0.11362E+03  0.70400E+02 -0.18402E+03  0.13515E+02  0.97431E+01  0.14250E+03      982.00
  0.23689E+00  0.41108E+03    0.13750E+00  0.13750E+00 -0.27500E+00  0.00000E+00  0.00000E+00  0.00000E+00    0.12311E+03  0.75331E+02 -0.19844E+03  0.14241E+02  0.10774E+02  0.16095E+03      982.00
  0.25499E+00  0.44040E+03    0.15000E+00  0.15000E+00 -0.30000E+00  0.00000E+00  0.00000E+00  0.00000E+00    0.13028E+03  0.79383E+02 -0.20966E+03  0.14648E+02  0.11516E+02  0.17518E+03      982.00
  0.27284E+00  0.46282E+03    0.16250E+00  0.16250E+00 -0.32500E+00  0.00000E+00  0.00000E+00  0.00000E+00    0.13565E+03  0.82589E+02 -0.21824E+03  0.14820E+02  0.12028E+02  0.18604E+03      982.00
  0.29053E+00  0.48034E+03    0.17500E+00  0.17500E+00 -0.35000E+00  0.00000E+00  0.00000E+00  0.00000E+00    0.13978E+03  0.85083E+02 -0.22487E+03  0.14853E+02  0.12346E+02  0.19458E+03      982.00
  0.30808E+00  0.49419E+03    0.18750E+00  0.18750E+00 -0.37500E+00  0.00000E+00  0.00000E+00  0.00000E+00    0.14302E+03  0.87013E+02 -0.23003E+03  0.14783E+02  0.12532E+02  0.20141E+03      982.00
  0.32554E+00  0.50539E+03    0.20000E+00  0.20000E+00 -0.40000E+00  0.00000E+00  0.00000E+00  0.00000E+00    0.14562E+03  0.88483E+02 -0.23411E+03  0.14639E+02  0.12615E+02  0.20699E+03      982.00
  0.34291E+00  0.51457E+03    0.21250E+00  0.21250E+00 -0.42500E+00  0.00000E+00  0.00000E+00  0.00000E+00    0.14778E+03  0.89576E+02 -0.23736E+03  0.14439E+02  0.12618E+02  0.21164E+03      982.00
  0.36020E+00  0.52186E+03    0.22500E+00  0.22500E+00 -0.45000E+00  0.00000E+00  0.00000E+00  0.00000E+00    0.14949E+03  0.90355E+02 -0.23985E+03  0.14189E+02  0.12561E+02  0.21541E+03      982.00
  0.37744E+00  0.52842E+03    0.23750E+00  0.23750E+00 -0.47500E+00  0.00000E+00  0.00000E+00  0.00000E+00    0.15106E+03  0.90923E+02 -0.24198E+03  0.13919E+02  0.12437E+02  0.21888E+03      982.00
  0.39461E+00  0.53404E+03    0.25000E+00  0.25000E+00 -0.50000E+00  0.00000E+00  0.00000E+00  0.00000E+00    0.15244E+03  0.91292E+02 -0.24373E+03  0.13602E+02  0.12286E+02  0.22190E+03      982.00
  0.41173E+00  0.53866E+03    0.26250E+00  0.26250E+00 -0.52500E+00  0.00000E+00  0.00000E+00  0.00000E+00    0.15355E+03  0.91532E+02 -0.24508E+03  0.13272E+02  0.12078E+02  0.22447E+03      982.00
  0.42879E+00  0.53936E+03    0.27500E+00  0.27500E+00 -0.55000E+00  0.00000E+00  0.00000E+00  0.00000E+00    0.15391E+03  0.90951E+02 -0.24486E+03  0.12872E+02  0.11746E+02  0.22518E+03      982.00
  0.44581E+00  0.54009E+03    0.28750E+00  0.28750E+00 -0.57500E+00  0.00000E+00  0.00000E+00  0.00000E+00    0.15414E+03  0.90530E+02 -0.24467E+03  0.12472E+02  0.11395E+02  0.22592E+03      982.00
  0.46280E+00  0.54080E+03    0.30000E+00  0.30000E+00 -0.60000E+00  0.00000E+00  0.00000E+00  0.00000E+00    0.15432E+03  0.90163E+02 -0.24448E+03  0.12076E+02  0.11045E+02  0.22663E+03      982.00
  0.47975E+00  0.54149E+03    0.31250E+00  0.31250E+00 -0.62500E+00  0.00000E+00  0.00000E+00  0.00000E+00    0.15448E+03  0.89829E+02 -0.24431E+03  0.11682E+02  0.10696E+02  0.22733E+03      982.00
  0.49667E+00  0.54216E+03    0.32500E+00  0.32500E+00 -0.65000E+00  0.00000E+00  0.00000E+00  0.00000E+00    0.15462E+03  0.89520E+02 -0.24414E+03  0.11293E+02  0.10348E+02  0.22799E+03      982.00
  0.51356E+00  0.54282E+03    0.33750E+00  0.33750E+00 -0.67500E+00  0.00000E+00  0.00000E+00  0.00000E+00    0.15477E+03  0.89233E+02 -0.24400E+03  0.10909E+02  0.10003E+02  0.22863E+03      982.00
  0.53042E+00  0.54364E+03    0.35000E+00  0.35000E+00 -0.70000E+00  0.00000E+00  0.00000E+00  0.00000E+00    0.15505E+03  0.88881E+02 -0.24393E+03  0.10527E+02  0.96416E+01  0.22933E+03      982.00
  0.54724E+00  0.54425E+03    0.36250E+00  0.36250E+00 -0.72500E+00  0.00000E+00  0.00000E+00  0.00000E+00    0.15517E+03  0.88640E+02 -0.24381E+03  0.10157E+02  0.93060E+01  0.22991E+03      982.00
  0.56404E+00  0.54483E+03    0.37500E+00  0.37500E+00 -0.75000E+00  0.00000E+00  0.00000E+00  0.00000E+00    0.15528E+03  0.88418E+02 -0.24370E+03  0.97957E+01  0.89762E+01  0.23046E+03      982.00
  0.58081E+00  0.54539E+03    0.38750E+00  0.38750E+00 -0.77500E+00  0.00000E+00  0.00000E+00  0.00000E+00    0.15539E+03  0.88217E+02 -0.24361E+03  0.94432E+01  0.86529E+01  0.23098E+03      982.00
  0.59756E+00  0.54590E+03    0.40000E+00  0.40000E+00 -0.80000E+00  0.00000E+00  0.00000E+00  0.00000E+00    0.15544E+03  0.88087E+02 -0.24352E+03  0.91156E+01  0.83551E+01  0.23145E+03      982.00
  0.61429E+00  0.54643E+03    0.41250E+00  0.41250E+00 -0.82500E+00  0.00000E+00  0.00000E+00  0.00000E+00    0.15557E+03  0.87900E+02 -0.24347E+03  0.87814E+01  0.80388E+01  0.23192E+03      982.00
  0.63100E+00  0.54709E+03    0.42500E+00  0.42500E+00 -0.85000E+00  0.00000E+00  0.00000E+00  0.00000E+00    0.15584E+03  0.87622E+02 -0.24346E+03  0.84440E+01  0.77155E+01  0.23242E+03      982.00
  0.64769E+00  0.54755E+03    0.43750E+00  0.43750E+00 -0.87500E+00  0.00000E+00  0.00000E+00  0.00000E+00    0.15592E+03  0.87488E+02 -0.24341E+03  0.81313E+01  0.74241E+01  0.23283E+03      982.00
  0.66436E+00  0.54798E+03    0.45000E+00  0.45000E+00 -0.90000E+00  0.00000E+00  0.00000E+00  0.00000E+00    0.15599E+03  0.87373E+02 -0.24337E+03  0.78291E+01  0.71416E+01  0.23320E+03      982.00
  0.68101E+00  0.54839E+03    0.46250E+00  0.46250E+00 -0.92500E+00  0.00000E+00  0.00000E+00  0.00000E+00    0.15606E+03  0.87275E+02 -0.24333E+03  0.75377E+01  0.68676E+01  0.23355E+03      982.00
  0.69765E+00  0.54877E+03    0.47500E+00  0.47500E+00 -0.95000E+00  0.00000E+00  0.00000E+00  0.00000E+00    0.15612E+03  0.87192E+02 -0.24331E+03  0.72568E+01  0.66022E+01  0.23388E+03      982.00
  0.71428E+00  0.54913E+03    0.48750E+00  0.48750E+00 -0.97500E+00  0.00000E+00  0.00000E+00  0.00000E+00    0.15617E+03  0.87122E+02 -0.24329E+03  0.69863E+01  0.63451E+01  0.23418E+03      982.00
  0.73089E+00  0.54955E+03    0.50000E+00  0.50000E+00 -0.10000E+01  0.00000E+00  0.00000E+00  0.00000E+00    0.15626E+03  0.87056E+02 -0.24332E+03  0.66932E+01  0.60489E+01  0.23449E+03      982.00
