          Evm          Svm            E11          E22          E33          E23          E13          E12         SDEV11       SDEV22       SDEV33       SDEV23       SDEV13       SDEV12      TEMP
  0.00000E+00  0.15959E+03    0.00000E+00  0.00000E+00  0.00000E+00  0.00000E+00  0.00000E+00  0.00000E+00    0.47519E+02  0.51321E+02 -0.98840E+02 -0.20937E+01 -0.41147E+01  0.33735E+02      982.00
  0.23225E-01  0.16050E+03    0.12500E-01  0.12500E-01 -0.25000E-01  0.00000E+00  0.00000E+00  0.00000E+00    0.48526E+02  0.50307E+02 -0.98833E+02 -0.17045E+01 -0.32012E+01  0.35305E+02      982.00
  0.46317E-01  0.16545E+03    0.25000E-01  0.25000E-01 -0.50000E-01  0.00000E+00  0.00000E+00  0.00000E+00    0.50088E+02  0.50513E+02 -0.10060E+03 -0.15947E+01 -0.26753E+01  0.39038E+02      982.00
  0.69119E-01  0.17509E+03    0.37500E-01  0.37500E-01 -0.75000E-01  0.00000E+00  0.00000E+00  0.00000E+00    0.52460E+02  0.51871E+02 -0.10433E+03 -0.16046E+01 -0.24112E+01  0.45243E+02      982.00
  0.91464E-01  0.19068E+03    0.50000E-01  0.50000E-01 -0.10000E+00  0.00000E+00  0.00000E+00  0.00000E+00    0.55914E+02  0.54505E+02 -0.11042E+03 -0.16910E+01 -0.23810E+01  0.54469E+02      982.00
  0.11318E+00  0.21435E+03    0.62500E-01  0.62500E-01 -0.12500E+00  0.00000E+00  0.00000E+00  0.00000E+00    0.60848E+02  0.58686E+02 -0.11953E+03 -0.18449E+01 -0.25545E+01  0.67738E+02      982.00
  0.13409E+00  0.24847E+03    0.75000E-01  0.75000E-01 -0.15000E+00  0.00000E+00  0.00000E+00  0.00000E+00    0.67641E+02  0.64733E+02 -0.13237E+03 -0.20783E+01 -0.29145E+01  0.86154E+02      982.00
  0.15407E+00  0.29365E+03    0.87500E-01  0.87500E-01 -0.17500E+00  0.00000E+00  0.00000E+00  0.00000E+00    0.76275E+02  0.72700E+02 -0.14898E+03 -0.23828E+01 -0.34239E+01  0.10990E+03      982.00
  0.17309E+00  0.34463E+03    0.10000E+00  0.10000E+00 -0.20000E+00  0.00000E+00  0.00000E+00  0.00000E+00    0.85620E+02  0.81759E+02 -0.16738E+03 -0.26860E+01 -0.40018E+01  0.13621E+03      982.00
  0.19131E+00  0.39215E+03    0.11250E+00  0.11250E+00 -0.22500E+00  0.00000E+00  0.00000E+00  0.00000E+00    0.93923E+02  0.90455E+02 -0.18438E+03 -0.29025E+01 -0.45449E+01  0.16041E+03      982.00
  0.20894E+00  0.43030E+03    0.12500E+00  0.12500E+00 -0.25000E+00  0.00000E+00  0.00000E+00  0.00000E+00    0.10026E+03  0.97778E+02 -0.19804E+03 -0.30104E+01 -0.49928E+01  0.17963E+03      982.00
  0.22620E+00  0.45950E+03    0.13750E+00  0.13750E+00 -0.27500E+00  0.00000E+00  0.00000E+00  0.00000E+00    0.10492E+03  0.10363E+03 -0.20855E+03 -0.30464E+01 -0.53373E+01  0.19422E+03      982.00
  0.24322E+00  0.48226E+03    0.15000E+00  0.15000E+00 -0.30000E+00  0.00000E+00  0.00000E+00  0.00000E+00    0.10841E+03  0.10836E+03 -0.21677E+03 -0.30443E+01 -0.55987E+01  0.20553E+03      982.00
  0.26007E+00  0.49987E+03    0.16250E+00  0.16250E+00 -0.32500E+00  0.00000E+00  0.00000E+00  0.00000E+00    0.11105E+03  0.11212E+03 -0.22318E+03 -0.30226E+01 -0.57886E+01  0.21422E+03      982.00
  0.27682E+00  0.51372E+03    0.17500E+00  0.17500E+00 -0.35000E+00  0.00000E+00  0.00000E+00  0.00000E+00    0.11312E+03  0.11513E+03 -0.22825E+03 -0.29923E+01 -0.59195E+01  0.22102E+03      982.00
  0.29348E+00  0.52472E+03    0.18750E+00  0.18750E+00 -0.37500E+00  0.00000E+00  0.00000E+00  0.00000E+00    0.11477E+03  0.11753E+03 -0.23230E+03 -0.29582E+01 -0.60022E+01  0.22640E+03      982.00
  0.31008E+00  0.53367E+03    0.20000E+00  0.20000E+00 -0.40000E+00  0.00000E+00  0.00000E+00  0.00000E+00    0.11614E+03  0.11948E+03 -0.23562E+03 -0.29230E+01 -0.60473E+01  0.23076E+03      982.00
  0.32663E+00  0.54096E+03    0.21250E+00  0.21250E+00 -0.42500E+00  0.00000E+00  0.00000E+00  0.00000E+00    0.11726E+03  0.12106E+03 -0.23832E+03 -0.28873E+01 -0.60624E+01  0.23431E+03      982.00
  0.34316E+00  0.54781E+03    0.22500E+00  0.22500E+00 -0.45000E+00  0.00000E+00  0.00000E+00  0.00000E+00    0.11822E+03  0.12259E+03 -0.24081E+03 -0.28448E+01 -0.60499E+01  0.23767E+03      982.00
  0.35964E+00  0.55272E+03    0.23750E+00  0.23750E+00 -0.47500E+00  0.00000E+00  0.00000E+00  0.00000E+00    0.11901E+03  0.12365E+03 -0.24266E+03 -0.28081E+01 -0.60213E+01  0.24004E+03      982.00
  0.37610E+00  0.55694E+03    0.25000E+00  0.25000E+00 -0.50000E+00  0.00000E+00  0.00000E+00  0.00000E+00    0.11973E+03  0.12452E+03 -0.24425E+03 -0.27703E+01 -0.59765E+01  0.24208E+03      982.00
  0.39255E+00  0.56076E+03    0.26250E+00  0.26250E+00 -0.52500E+00  0.00000E+00  0.00000E+00  0.00000E+00    0.12037E+03  0.12528E+03 -0.24565E+03 -0.27260E+01 -0.59212E+01  0.24395E+03      982.00
  0.40898E+00  0.56385E+03    0.27500E+00  0.27500E+00 -0.55000E+00  0.00000E+00  0.00000E+00  0.00000E+00    0.12094E+03  0.12589E+03 -0.24682E+03 -0.26862E+01 -0.58543E+01  0.24543E+03      982.00
  0.42539E+00  0.56655E+03    0.28750E+00  0.28750E+00 -0.57500E+00  0.00000E+00  0.00000E+00  0.00000E+00    0.12146E+03  0.12639E+03 -0.24785E+03 -0.26446E+01 -0.57796E+01  0.24673E+03      982.00
  0.44180E+00  0.56955E+03    0.30000E+00  0.30000E+00 -0.60000E+00  0.00000E+00  0.00000E+00  0.00000E+00    0.12202E+03  0.12693E+03 -0.24895E+03 -0.26004E+01 -0.57029E+01  0.24820E+03      982.00
  0.45819E+00  0.56877E+03    0.31250E+00  0.31250E+00 -0.62500E+00  0.00000E+00  0.00000E+00  0.00000E+00    0.12214E+03  0.12653E+03 -0.24868E+03 -0.24801E+01 -0.54326E+01  0.24781E+03      982.00
  0.47458E+00  0.56906E+03    0.32500E+00  0.32500E+00 -0.65000E+00  0.00000E+00  0.00000E+00  0.00000E+00    0.12234E+03  0.12642E+03 -0.24876E+03 -0.24491E+01 -0.53329E+01  0.24798E+03      982.00
  0.49098E+00  0.56910E+03    0.33750E+00  0.33750E+00 -0.67500E+00  0.00000E+00  0.00000E+00  0.00000E+00    0.12246E+03  0.12631E+03 -0.24876E+03 -0.24371E+01 -0.53242E+01  0.24801E+03      982.00
  0.50737E+00  0.56911E+03    0.35000E+00  0.35000E+00 -0.70000E+00  0.00000E+00  0.00000E+00  0.00000E+00    0.12254E+03  0.12620E+03 -0.24875E+03 -0.23876E+01 -0.52066E+01  0.24804E+03      982.00
  0.52376E+00  0.56913E+03    0.36250E+00  0.36250E+00 -0.72500E+00  0.00000E+00  0.00000E+00  0.00000E+00    0.12263E+03  0.12611E+03 -0.24873E+03 -0.23360E+01 -0.50864E+01  0.24806E+03      982.00
  0.54015E+00  0.56915E+03    0.37500E+00  0.37500E+00 -0.75000E+00  0.00000E+00  0.00000E+00  0.00000E+00    0.12271E+03  0.12602E+03 -0.24872E+03 -0.22847E+01 -0.49700E+01  0.24808E+03      982.00
  0.55654E+00  0.56916E+03    0.38750E+00  0.38750E+00 -0.77500E+00  0.00000E+00  0.00000E+00  0.00000E+00    0.12278E+03  0.12593E+03 -0.24871E+03 -0.22337E+01 -0.48571E+01  0.24811E+03      982.00
  0.57292E+00  0.56917E+03    0.40000E+00  0.40000E+00 -0.80000E+00  0.00000E+00  0.00000E+00  0.00000E+00    0.12286E+03  0.12584E+03 -0.24870E+03 -0.21830E+01 -0.47477E+01  0.24813E+03      982.00
  0.58931E+00  0.56919E+03    0.41250E+00  0.41250E+00 -0.82500E+00  0.00000E+00  0.00000E+00  0.00000E+00    0.12294E+03  0.12576E+03 -0.24870E+03 -0.21327E+01 -0.46416E+01  0.24814E+03      982.00
  0.60569E+00  0.56920E+03    0.42500E+00  0.42500E+00 -0.85000E+00  0.00000E+00  0.00000E+00  0.00000E+00    0.12301E+03  0.12568E+03 -0.24869E+03 -0.20828E+01 -0.45388E+01  0.24816E+03      982.00
  0.62208E+00  0.56922E+03    0.43750E+00  0.43750E+00 -0.87500E+00  0.00000E+00  0.00000E+00  0.00000E+00    0.12309E+03  0.12560E+03 -0.24868E+03 -0.20335E+01 -0.44391E+01  0.24818E+03      982.00
  0.63846E+00  0.56923E+03    0.45000E+00  0.45000E+00 -0.90000E+00  0.00000E+00  0.00000E+00  0.00000E+00    0.12317E+03  0.12552E+03 -0.24868E+03 -0.19848E+01 -0.43424E+01  0.24820E+03      982.00
  0.65484E+00  0.56925E+03    0.46250E+00  0.46250E+00 -0.92500E+00  0.00000E+00  0.00000E+00  0.00000E+00    0.12324E+03  0.12544E+03 -0.24868E+03 -0.19367E+01 -0.42488E+01  0.24821E+03      982.00
  0.67123E+00  0.56926E+03    0.47500E+00  0.47500E+00 -0.95000E+00  0.00000E+00  0.00000E+00  0.00000E+00    0.12332E+03  0.12536E+03 -0.24868E+03 -0.18893E+01 -0.41581E+01  0.24823E+03      982.00
  0.68761E+00  0.56928E+03    0.48750E+00  0.48750E+00 -0.97500E+00  0.00000E+00  0.00000E+00  0.00000E+00    0.12340E+03  0.12528E+03 -0.24868E+03 -0.18427E+01 -0.40702E+01  0.24825E+03      982.00
  0.70399E+00  0.56930E+03    0.50000E+00  0.50000E+00 -0.10000E+01  0.00000E+00  0.00000E+00  0.00000E+00    0.12347E+03  0.12520E+03 -0.24868E+03 -0.17968E+01 -0.39850E+01  0.24826E+03      982.00
