          Evm          Svm            E11          E22          E33          E23          E13          E12         SDEV11       SDEV22       SDEV33       SDEV23       SDEV13       SDEV12      TEMP
  0.00000E+00  0.16796E+03    0.00000E+00  0.00000E+00  0.00000E+00  0.00000E+00  0.00000E+00  0.00000E+00    0.39891E+02  0.68334E+02 -0.10823E+03 -0.32268E+01 -0.35998E+01  0.19823E+02      982.00
  0.24164E-01  0.16931E+03    0.12500E-01  0.12500E-01 -0.25000E-01  0.00000E+00  0.00000E+00  0.00000E+00    0.38620E+02  0.69836E+02 -0.10846E+03 -0.22645E+01 -0.24451E+01  0.21886E+02      982.00
  0.48185E-01  0.17583E+03    0.25000E-01  0.25000E-01 -0.50000E-01  0.00000E+00  0.00000E+00  0.00000E+00    0.37540E+02  0.73980E+02 -0.11152E+03 -0.20452E+01 -0.16759E+01  0.25273E+02      982.00
  0.71969E-01  0.18847E+03    0.37500E-01  0.37500E-01 -0.75000E-01  0.00000E+00  0.00000E+00  0.00000E+00    0.36463E+02  0.81344E+02 -0.11781E+03 -0.24636E+01 -0.12730E+01  0.30343E+02      982.00
  0.95409E-01  0.20832E+03    0.50000E-01  0.50000E-01 -0.10000E+00  0.00000E+00  0.00000E+00  0.00000E+00    0.35131E+02  0.92530E+02 -0.12766E+03 -0.34171E+01 -0.12145E+01  0.37488E+02      982.00
  0.11839E+00  0.23573E+03    0.62500E-01  0.62500E-01 -0.12500E+00  0.00000E+00  0.00000E+00  0.00000E+00    0.33291E+02  0.10776E+03 -0.14105E+03 -0.47130E+01 -0.14475E+01  0.46808E+02      982.00
  0.14083E+00  0.26834E+03    0.75000E-01  0.75000E-01 -0.15000E+00  0.00000E+00  0.00000E+00  0.00000E+00    0.30904E+02  0.12579E+03 -0.15669E+03 -0.60125E+01 -0.18384E+01  0.57425E+02      982.00
  0.16273E+00  0.30113E+03    0.87500E-01  0.87500E-01 -0.17500E+00  0.00000E+00  0.00000E+00  0.00000E+00    0.28292E+02  0.14395E+03 -0.17224E+03 -0.69767E+01 -0.22518E+01  0.67657E+02      982.00
  0.18418E+00  0.32953E+03    0.10000E+00  0.10000E+00 -0.20000E+00  0.00000E+00  0.00000E+00  0.00000E+00    0.26068E+02  0.15967E+03 -0.18574E+03 -0.75373E+01 -0.26256E+01  0.76145E+02      982.00
  0.20531E+00  0.35227E+03    0.11250E+00  0.11250E+00 -0.22500E+00  0.00000E+00  0.00000E+00  0.00000E+00    0.24648E+02  0.17207E+03 -0.19672E+03 -0.78175E+01 -0.29890E+01  0.82686E+02      982.00
  0.22625E+00  0.36963E+03    0.12500E+00  0.12500E+00 -0.25000E+00  0.00000E+00  0.00000E+00  0.00000E+00    0.24344E+02  0.18110E+03 -0.20544E+03 -0.79800E+01 -0.33865E+01  0.87580E+02      982.00
  0.24710E+00  0.38263E+03    0.13750E+00  0.13750E+00 -0.27500E+00  0.00000E+00  0.00000E+00  0.00000E+00    0.25067E+02  0.18734E+03 -0.21240E+03 -0.81352E+01 -0.38308E+01  0.91115E+02      982.00
  0.26791E+00  0.39095E+03    0.15000E+00  0.15000E+00 -0.30000E+00  0.00000E+00  0.00000E+00  0.00000E+00    0.26125E+02  0.19129E+03 -0.21742E+03 -0.84486E+01 -0.42477E+01  0.92658E+02      982.00
  0.28877E+00  0.39583E+03    0.16250E+00  0.16250E+00 -0.32500E+00  0.00000E+00  0.00000E+00  0.00000E+00    0.25772E+02  0.19494E+03 -0.22072E+03 -0.88189E+01 -0.44301E+01  0.91869E+02      982.00
  0.30968E+00  0.39799E+03    0.17500E+00  0.17500E+00 -0.35000E+00  0.00000E+00  0.00000E+00  0.00000E+00    0.24771E+02  0.19781E+03 -0.22258E+03 -0.91904E+01 -0.44615E+01  0.89736E+02      982.00
  0.33065E+00  0.39961E+03    0.18750E+00  0.18750E+00 -0.37500E+00  0.00000E+00  0.00000E+00  0.00000E+00    0.24008E+02  0.20012E+03 -0.22413E+03 -0.93783E+01 -0.45012E+01  0.87700E+02      982.00
  0.35168E+00  0.40089E+03    0.20000E+00  0.20000E+00 -0.40000E+00  0.00000E+00  0.00000E+00  0.00000E+00    0.24117E+02  0.20153E+03 -0.22565E+03 -0.94235E+01 -0.46515E+01  0.86040E+02      982.00
  0.37279E+00  0.40168E+03    0.21250E+00  0.21250E+00 -0.42500E+00  0.00000E+00  0.00000E+00  0.00000E+00    0.25019E+02  0.20210E+03 -0.22712E+03 -0.93824E+01 -0.48561E+01  0.84530E+02      982.00
  0.39399E+00  0.40161E+03    0.22500E+00  0.22500E+00 -0.45000E+00  0.00000E+00  0.00000E+00  0.00000E+00    0.26592E+02  0.20182E+03 -0.22841E+03 -0.94004E+01 -0.50493E+01  0.82746E+02      982.00
  0.41532E+00  0.40134E+03    0.23750E+00  0.23750E+00 -0.47500E+00  0.00000E+00  0.00000E+00  0.00000E+00    0.28269E+02  0.20132E+03 -0.22959E+03 -0.91885E+01 -0.51907E+01  0.80990E+02      982.00
  0.43677E+00  0.40043E+03    0.25000E+00  0.25000E+00 -0.50000E+00  0.00000E+00  0.00000E+00  0.00000E+00    0.30124E+02  0.20046E+03 -0.23058E+03 -0.90502E+01 -0.52647E+01  0.78788E+02      982.00
  0.45837E+00  0.39656E+03    0.26250E+00  0.26250E+00 -0.52500E+00  0.00000E+00  0.00000E+00  0.00000E+00    0.32003E+02  0.19799E+03 -0.22999E+03 -0.88667E+01 -0.51857E+01  0.75862E+02      982.00
  0.48011E+00  0.39278E+03    0.27500E+00  0.27500E+00 -0.55000E+00  0.00000E+00  0.00000E+00  0.00000E+00    0.33977E+02  0.19548E+03 -0.22946E+03 -0.87229E+01 -0.51179E+01  0.72909E+02      982.00
  0.50202E+00  0.38915E+03    0.28750E+00  0.28750E+00 -0.57500E+00  0.00000E+00  0.00000E+00  0.00000E+00    0.36033E+02  0.19296E+03 -0.22899E+03 -0.86161E+01 -0.50640E+01  0.69962E+02      982.00
  0.52409E+00  0.38569E+03    0.30000E+00  0.30000E+00 -0.60000E+00  0.00000E+00  0.00000E+00  0.00000E+00    0.38167E+02  0.19044E+03 -0.22861E+03 -0.85496E+01 -0.50250E+01  0.67034E+02      982.00
  0.54631E+00  0.38243E+03    0.31250E+00  0.31250E+00 -0.62500E+00  0.00000E+00  0.00000E+00  0.00000E+00    0.40369E+02  0.18794E+03 -0.22831E+03 -0.85189E+01 -0.50014E+01  0.64147E+02      982.00
  0.56870E+00  0.37939E+03    0.32500E+00  0.32500E+00 -0.65000E+00  0.00000E+00  0.00000E+00  0.00000E+00    0.42635E+02  0.18547E+03 -0.22810E+03 -0.85241E+01 -0.49930E+01  0.61313E+02      982.00
  0.59125E+00  0.37660E+03    0.33750E+00  0.33750E+00 -0.67500E+00  0.00000E+00  0.00000E+00  0.00000E+00    0.44956E+02  0.18303E+03 -0.22799E+03 -0.85619E+01 -0.49990E+01  0.58547E+02      982.00
  0.61395E+00  0.37406E+03    0.35000E+00  0.35000E+00 -0.70000E+00  0.00000E+00  0.00000E+00  0.00000E+00    0.47325E+02  0.18064E+03 -0.22797E+03 -0.86284E+01 -0.50177E+01  0.55860E+02      982.00
  0.63680E+00  0.37180E+03    0.36250E+00  0.36250E+00 -0.72500E+00  0.00000E+00  0.00000E+00  0.00000E+00    0.49732E+02  0.17832E+03 -0.22805E+03 -0.87190E+01 -0.50472E+01  0.53262E+02      982.00
  0.65981E+00  0.36982E+03    0.37500E+00  0.37500E+00 -0.75000E+00  0.00000E+00  0.00000E+00  0.00000E+00    0.52167E+02  0.17607E+03 -0.22824E+03 -0.88289E+01 -0.50850E+01  0.50760E+02      982.00
  0.68295E+00  0.36819E+03    0.38750E+00  0.38750E+00 -0.77500E+00  0.00000E+00  0.00000E+00  0.00000E+00    0.54614E+02  0.17395E+03 -0.22856E+03 -0.89379E+01 -0.51242E+01  0.48379E+02      982.00
  0.70623E+00  0.36678E+03    0.40000E+00  0.40000E+00 -0.80000E+00  0.00000E+00  0.00000E+00  0.00000E+00    0.57076E+02  0.17188E+03 -0.22895E+03 -0.90744E+01 -0.51722E+01  0.46078E+02      982.00
  0.72964E+00  0.36565E+03    0.41250E+00  0.41250E+00 -0.82500E+00  0.00000E+00  0.00000E+00  0.00000E+00    0.59539E+02  0.16990E+03 -0.22944E+03 -0.92160E+01 -0.52217E+01  0.43882E+02      982.00
  0.75317E+00  0.36479E+03    0.42500E+00  0.42500E+00 -0.85000E+00  0.00000E+00  0.00000E+00  0.00000E+00    0.61992E+02  0.16803E+03 -0.23003E+03 -0.93586E+01 -0.52707E+01  0.41789E+02      982.00
  0.77682E+00  0.36419E+03    0.43750E+00  0.43750E+00 -0.87500E+00  0.00000E+00  0.00000E+00  0.00000E+00    0.64416E+02  0.16628E+03 -0.23069E+03 -0.95047E+01 -0.53206E+01  0.39808E+02      982.00
  0.80057E+00  0.36385E+03    0.45000E+00  0.45000E+00 -0.90000E+00  0.00000E+00  0.00000E+00  0.00000E+00    0.66833E+02  0.16462E+03 -0.23146E+03 -0.96382E+01 -0.53638E+01  0.37917E+02      982.00
  0.82442E+00  0.36370E+03    0.46250E+00  0.46250E+00 -0.92500E+00  0.00000E+00  0.00000E+00  0.00000E+00    0.69267E+02  0.16302E+03 -0.23228E+03 -0.97636E+01 -0.54010E+01  0.36127E+02      982.00
  0.84837E+00  0.36382E+03    0.47500E+00  0.47500E+00 -0.95000E+00  0.00000E+00  0.00000E+00  0.00000E+00    0.71619E+02  0.16158E+03 -0.23320E+03 -0.98797E+01 -0.54343E+01  0.34429E+02      982.00
  0.87241E+00  0.36415E+03    0.48750E+00  0.48750E+00 -0.97500E+00  0.00000E+00  0.00000E+00  0.00000E+00    0.73935E+02  0.16025E+03 -0.23419E+03 -0.99852E+01 -0.54620E+01  0.32820E+02      982.00
  0.89653E+00  0.36467E+03    0.50000E+00  0.50000E+00 -0.10000E+01  0.00000E+00  0.00000E+00  0.00000E+00    0.76212E+02  0.15903E+03 -0.23524E+03 -0.10079E+02 -0.54838E+01  0.31296E+02      982.00
