          Evm          Svm            E11          E22          E33          E23          E13          E12         SDEV11       SDEV22       SDEV33       SDEV23       SDEV13       SDEV12      TEMP
  0.00000E+00  0.16373E+03    0.00000E+00  0.00000E+00  0.00000E+00  0.00000E+00  0.00000E+00  0.00000E+00    0.49114E+02  0.55287E+02 -0.10440E+03 -0.12346E+02 -0.12095E+02  0.21287E+02      982.00
  0.23911E-01  0.16400E+03    0.12500E-01  0.12500E-01 -0.25000E-01  0.00000E+00  0.00000E+00  0.00000E+00    0.49533E+02  0.54712E+02 -0.10424E+03 -0.11903E+02 -0.11256E+02  0.23235E+02      982.00
  0.47748E-01  0.16882E+03    0.25000E-01  0.25000E-01 -0.50000E-01  0.00000E+00  0.00000E+00  0.00000E+00    0.51477E+02  0.55066E+02 -0.10654E+03 -0.11842E+02 -0.11141E+02  0.26820E+02      982.00
  0.71414E-01  0.17866E+03    0.37500E-01  0.37500E-01 -0.75000E-01  0.00000E+00  0.00000E+00  0.00000E+00    0.55058E+02  0.56374E+02 -0.11143E+03 -0.12051E+02 -0.11546E+02  0.32371E+02      982.00
  0.94803E-01  0.19398E+03    0.50000E-01  0.50000E-01 -0.10000E+00  0.00000E+00  0.00000E+00  0.00000E+00    0.60324E+02  0.58655E+02 -0.11898E+03 -0.12412E+02 -0.12246E+02  0.40266E+02      982.00
  0.11780E+00  0.21531E+03    0.62500E-01  0.62500E-01 -0.12500E+00  0.00000E+00  0.00000E+00  0.00000E+00    0.67245E+02  0.61972E+02 -0.12922E+03 -0.12814E+02 -0.13042E+02  0.50883E+02      982.00
  0.14031E+00  0.24281E+03    0.75000E-01  0.75000E-01 -0.15000E+00  0.00000E+00  0.00000E+00  0.00000E+00    0.75636E+02  0.66386E+02 -0.14202E+03 -0.13129E+02 -0.13741E+02  0.64362E+02      982.00
  0.16224E+00  0.27579E+03    0.87500E-01  0.87500E-01 -0.17500E+00  0.00000E+00  0.00000E+00  0.00000E+00    0.85126E+02  0.71800E+02 -0.15693E+03 -0.13206E+02 -0.14182E+02  0.80401E+02      982.00
  0.18358E+00  0.31131E+03    0.10000E+00  0.10000E+00 -0.20000E+00  0.00000E+00  0.00000E+00  0.00000E+00    0.94873E+02  0.77748E+02 -0.17262E+03 -0.12920E+02 -0.14225E+02  0.97533E+02      982.00
  0.20437E+00  0.34550E+03    0.11250E+00  0.11250E+00 -0.22500E+00  0.00000E+00  0.00000E+00  0.00000E+00    0.10398E+03  0.83470E+02 -0.18745E+03 -0.12226E+02 -0.13807E+02  0.11397E+03      982.00
  0.22472E+00  0.37501E+03    0.12500E+00  0.12500E+00 -0.25000E+00  0.00000E+00  0.00000E+00  0.00000E+00    0.11183E+03  0.88437E+02 -0.20027E+03 -0.11325E+02 -0.13164E+02  0.12790E+03      982.00
  0.24475E+00  0.39983E+03    0.13750E+00  0.13750E+00 -0.27500E+00  0.00000E+00  0.00000E+00  0.00000E+00    0.11858E+03  0.92419E+02 -0.21100E+03 -0.10234E+02 -0.12244E+02  0.13954E+03      982.00
  0.26454E+00  0.41961E+03    0.15000E+00  0.15000E+00 -0.30000E+00  0.00000E+00  0.00000E+00  0.00000E+00    0.12421E+03  0.95435E+02 -0.21964E+03 -0.91109E+01 -0.11216E+02  0.14864E+03      982.00
  0.28417E+00  0.43531E+03    0.16250E+00  0.16250E+00 -0.32500E+00  0.00000E+00  0.00000E+00  0.00000E+00    0.12895E+03  0.97658E+02 -0.22661E+03 -0.80079E+01 -0.10136E+02  0.15569E+03      982.00
  0.30369E+00  0.44735E+03    0.17500E+00  0.17500E+00 -0.35000E+00  0.00000E+00  0.00000E+00  0.00000E+00    0.13288E+03  0.99187E+02 -0.23207E+03 -0.69368E+01 -0.90184E+01  0.16095E+03      982.00
  0.32314E+00  0.45573E+03    0.18750E+00  0.18750E+00 -0.37500E+00  0.00000E+00  0.00000E+00  0.00000E+00    0.13585E+03  0.10022E+03 -0.23606E+03 -0.59886E+01 -0.79931E+01  0.16437E+03      982.00
  0.34257E+00  0.46149E+03    0.20000E+00  0.20000E+00 -0.40000E+00  0.00000E+00  0.00000E+00  0.00000E+00    0.13814E+03  0.10091E+03 -0.23905E+03 -0.51511E+01 -0.70558E+01  0.16646E+03      982.00
  0.36199E+00  0.46497E+03    0.21250E+00  0.21250E+00 -0.42500E+00  0.00000E+00  0.00000E+00  0.00000E+00    0.13991E+03  0.10122E+03 -0.24113E+03 -0.44347E+01 -0.62222E+01  0.16741E+03      982.00
  0.38144E+00  0.46551E+03    0.22500E+00  0.22500E+00 -0.45000E+00  0.00000E+00  0.00000E+00  0.00000E+00    0.14062E+03  0.10158E+03 -0.24220E+03 -0.39996E+01 -0.57681E+01  0.16675E+03      982.00
  0.40095E+00  0.46445E+03    0.23750E+00  0.23750E+00 -0.47500E+00  0.00000E+00  0.00000E+00  0.00000E+00    0.14066E+03  0.10203E+03 -0.24269E+03 -0.36515E+01 -0.54173E+01  0.16527E+03      982.00
  0.42054E+00  0.46243E+03    0.25000E+00  0.25000E+00 -0.50000E+00  0.00000E+00  0.00000E+00  0.00000E+00    0.14044E+03  0.10240E+03 -0.24285E+03 -0.33505E+01 -0.51185E+01  0.16325E+03      982.00
  0.44024E+00  0.45983E+03    0.26250E+00  0.26250E+00 -0.52500E+00  0.00000E+00  0.00000E+00  0.00000E+00    0.14008E+03  0.10274E+03 -0.24282E+03 -0.30644E+01 -0.48262E+01  0.16087E+03      982.00
  0.46004E+00  0.45337E+03    0.27500E+00  0.27500E+00 -0.55000E+00  0.00000E+00  0.00000E+00  0.00000E+00    0.13865E+03  0.10244E+03 -0.24110E+03 -0.29954E+01 -0.47520E+01  0.15672E+03      982.00
  0.47998E+00  0.44713E+03    0.28750E+00  0.28750E+00 -0.57500E+00  0.00000E+00  0.00000E+00  0.00000E+00    0.13728E+03  0.10218E+03 -0.23946E+03 -0.28552E+01 -0.45846E+01  0.15263E+03      982.00
  0.50006E+00  0.44127E+03    0.30000E+00  0.30000E+00 -0.60000E+00  0.00000E+00  0.00000E+00  0.00000E+00    0.13606E+03  0.10194E+03 -0.23800E+03 -0.26599E+01 -0.43370E+01  0.14868E+03      982.00
  0.52029E+00  0.43558E+03    0.31250E+00  0.31250E+00 -0.62500E+00  0.00000E+00  0.00000E+00  0.00000E+00    0.13491E+03  0.10172E+03 -0.23663E+03 -0.24533E+01 -0.40666E+01  0.14474E+03      982.00
  0.54066E+00  0.43009E+03    0.32500E+00  0.32500E+00 -0.65000E+00  0.00000E+00  0.00000E+00  0.00000E+00    0.13384E+03  0.10152E+03 -0.23536E+03 -0.22485E+01 -0.37895E+01  0.14083E+03      982.00
  0.56118E+00  0.42469E+03    0.33750E+00  0.33750E+00 -0.67500E+00  0.00000E+00  0.00000E+00  0.00000E+00    0.13282E+03  0.10135E+03 -0.23416E+03 -0.20617E+01 -0.35335E+01  0.13687E+03      982.00
  0.58186E+00  0.41942E+03    0.35000E+00  0.35000E+00 -0.70000E+00  0.00000E+00  0.00000E+00  0.00000E+00    0.13184E+03  0.10120E+03 -0.23304E+03 -0.18980E+01 -0.33052E+01  0.13288E+03      982.00
  0.60270E+00  0.41417E+03    0.36250E+00  0.36250E+00 -0.72500E+00  0.00000E+00  0.00000E+00  0.00000E+00    0.13086E+03  0.10110E+03 -0.23196E+03 -0.17745E+01 -0.31291E+01  0.12880E+03      982.00
  0.62370E+00  0.40905E+03    0.37500E+00  0.37500E+00 -0.75000E+00  0.00000E+00  0.00000E+00  0.00000E+00    0.12993E+03  0.10103E+03 -0.23096E+03 -0.16806E+01 -0.29918E+01  0.12470E+03      982.00
  0.64487E+00  0.40391E+03    0.38750E+00  0.38750E+00 -0.77500E+00  0.00000E+00  0.00000E+00  0.00000E+00    0.12896E+03  0.10101E+03 -0.22997E+03 -0.16377E+01 -0.29205E+01  0.12046E+03      982.00
  0.66622E+00  0.39905E+03    0.40000E+00  0.40000E+00 -0.80000E+00  0.00000E+00  0.00000E+00  0.00000E+00    0.12807E+03  0.10103E+03 -0.22910E+03 -0.16183E+01 -0.28818E+01  0.11629E+03      982.00
  0.68775E+00  0.39438E+03    0.41250E+00  0.41250E+00 -0.82500E+00  0.00000E+00  0.00000E+00  0.00000E+00    0.12720E+03  0.10110E+03 -0.22831E+03 -0.16346E+01 -0.28907E+01  0.11211E+03      982.00
  0.70946E+00  0.38991E+03    0.42500E+00  0.42500E+00 -0.85000E+00  0.00000E+00  0.00000E+00  0.00000E+00    0.12638E+03  0.10123E+03 -0.22761E+03 -0.16848E+01 -0.29446E+01  0.10795E+03      982.00
  0.73135E+00  0.38551E+03    0.43750E+00  0.43750E+00 -0.87500E+00  0.00000E+00  0.00000E+00  0.00000E+00    0.12553E+03  0.10141E+03 -0.22694E+03 -0.17889E+01 -0.30728E+01  0.10370E+03      982.00
  0.75343E+00  0.38158E+03    0.45000E+00  0.45000E+00 -0.90000E+00  0.00000E+00  0.00000E+00  0.00000E+00    0.12480E+03  0.10164E+03 -0.22644E+03 -0.18965E+01 -0.32035E+01  0.99640E+02      982.00
  0.77568E+00  0.37802E+03    0.46250E+00  0.46250E+00 -0.92500E+00  0.00000E+00  0.00000E+00  0.00000E+00    0.12416E+03  0.10191E+03 -0.22608E+03 -0.20156E+01 -0.33481E+01  0.95709E+02      982.00
  0.79811E+00  0.37457E+03    0.47500E+00  0.47500E+00 -0.95000E+00  0.00000E+00  0.00000E+00  0.00000E+00    0.12350E+03  0.10226E+03 -0.22576E+03 -0.21917E+01 -0.35732E+01  0.91716E+02      982.00
  0.82071E+00  0.37159E+03    0.48750E+00  0.48750E+00 -0.97500E+00  0.00000E+00  0.00000E+00  0.00000E+00    0.12295E+03  0.10265E+03 -0.22561E+03 -0.23590E+01 -0.37822E+01  0.87920E+02      982.00
  0.84348E+00  0.36895E+03    0.50000E+00  0.50000E+00 -0.10000E+01  0.00000E+00  0.00000E+00  0.00000E+00    0.12248E+03  0.10310E+03 -0.22557E+03 -0.25385E+01 -0.40071E+01  0.84237E+02      982.00
