          Evm          Svm            E11          E22          E33          E23          E13          E12         SDEV11       SDEV22       SDEV33       SDEV23       SDEV13       SDEV12      TEMP
  0.00000E+00  0.14230E+03    0.00000E+00  0.00000E+00  0.00000E+00  0.00000E+00  0.00000E+00  0.00000E+00    0.51223E+02  0.39646E+02 -0.90868E+02 -0.49107E+01 -0.10946E+02  0.19487E+02      982.00
  0.23946E-01  0.15003E+03    0.12500E-01  0.12500E-01 -0.25000E-01  0.00000E+00  0.00000E+00  0.00000E+00    0.52121E+02  0.42519E+02 -0.94641E+02 -0.45427E+01 -0.10958E+02  0.24929E+02      982.00
  0.47602E-01  0.16853E+03    0.25000E-01  0.25000E-01 -0.50000E-01  0.00000E+00  0.00000E+00  0.00000E+00    0.54721E+02  0.48629E+02 -0.10335E+03 -0.43922E+01 -0.11346E+02  0.36042E+02      982.00
  0.70599E-01  0.20001E+03    0.37500E-01  0.37500E-01 -0.75000E-01  0.00000E+00  0.00000E+00  0.00000E+00    0.58867E+02  0.58204E+02 -0.11707E+03 -0.43176E+01 -0.12037E+02  0.53770E+02      982.00
  0.92549E-01  0.23792E+03    0.50000E-01  0.50000E-01 -0.10000E+00  0.00000E+00  0.00000E+00  0.00000E+00    0.63151E+02  0.69371E+02 -0.13252E+03 -0.44322E+01 -0.12817E+02  0.74183E+02      982.00
  0.11344E+00  0.29572E+03    0.62500E-01  0.62500E-01 -0.12500E+00  0.00000E+00  0.00000E+00  0.00000E+00    0.68607E+02  0.86541E+02 -0.15515E+03 -0.55328E+01 -0.14485E+02  0.10381E+03      982.00
  0.13311E+00  0.31551E+03    0.75000E-01  0.75000E-01 -0.15000E+00  0.00000E+00  0.00000E+00  0.00000E+00    0.70417E+02  0.91645E+02 -0.16206E+03 -0.47711E+01 -0.14779E+02  0.11459E+03      982.00
  0.15237E+00  0.33082E+03    0.87500E-01  0.87500E-01 -0.17500E+00  0.00000E+00  0.00000E+00  0.00000E+00    0.73686E+02  0.93621E+02 -0.16731E+03 -0.47192E+01 -0.14936E+02  0.12306E+03      982.00
  0.17134E+00  0.35127E+03    0.10000E+00  0.10000E+00 -0.20000E+00  0.00000E+00  0.00000E+00  0.00000E+00    0.77872E+02  0.96803E+02 -0.17467E+03 -0.54711E+01 -0.15144E+02  0.13378E+03      982.00
  0.18999E+00  0.37794E+03    0.11250E+00  0.11250E+00 -0.22500E+00  0.00000E+00  0.00000E+00  0.00000E+00    0.82440E+02  0.10199E+03 -0.18443E+03 -0.66043E+01 -0.15315E+02  0.14741E+03      982.00
  0.20828E+00  0.40599E+03    0.12500E+00  0.12500E+00 -0.25000E+00  0.00000E+00  0.00000E+00  0.00000E+00    0.87175E+02  0.10764E+03 -0.19482E+03 -0.78935E+01 -0.15427E+02  0.16147E+03      982.00
  0.22628E+00  0.43298E+03    0.13750E+00  0.13750E+00 -0.27500E+00  0.00000E+00  0.00000E+00  0.00000E+00    0.91690E+02  0.11318E+03 -0.20487E+03 -0.90959E+01 -0.15485E+02  0.17485E+03      982.00
  0.24402E+00  0.45674E+03    0.15000E+00  0.15000E+00 -0.30000E+00  0.00000E+00  0.00000E+00  0.00000E+00    0.95724E+02  0.11803E+03 -0.21375E+03 -0.10102E+02 -0.15486E+02  0.18656E+03      982.00
  0.26157E+00  0.47695E+03    0.16250E+00  0.16250E+00 -0.32500E+00  0.00000E+00  0.00000E+00  0.00000E+00    0.99192E+02  0.12211E+03 -0.22130E+03 -0.10877E+02 -0.15447E+02  0.19649E+03      982.00
  0.27897E+00  0.49434E+03    0.17500E+00  0.17500E+00 -0.35000E+00  0.00000E+00  0.00000E+00  0.00000E+00    0.10210E+03  0.12559E+03 -0.22769E+03 -0.11391E+02 -0.15395E+02  0.20511E+03      982.00
  0.29624E+00  0.50827E+03    0.18750E+00  0.18750E+00 -0.37500E+00  0.00000E+00  0.00000E+00  0.00000E+00    0.10455E+03  0.12828E+03 -0.23283E+03 -0.11791E+02 -0.15287E+02  0.21199E+03      982.00
  0.31342E+00  0.52013E+03    0.20000E+00  0.20000E+00 -0.40000E+00  0.00000E+00  0.00000E+00  0.00000E+00    0.10653E+03  0.13057E+03 -0.23709E+03 -0.12010E+02 -0.15170E+02  0.21794E+03      982.00
  0.33052E+00  0.52967E+03    0.21250E+00  0.21250E+00 -0.42500E+00  0.00000E+00  0.00000E+00  0.00000E+00    0.10805E+03  0.13239E+03 -0.24044E+03 -0.12118E+02 -0.15014E+02  0.22279E+03      982.00
  0.34754E+00  0.53763E+03    0.22500E+00  0.22500E+00 -0.45000E+00  0.00000E+00  0.00000E+00  0.00000E+00    0.10919E+03  0.13396E+03 -0.24314E+03 -0.12139E+02 -0.14820E+02  0.22691E+03      982.00
  0.36450E+00  0.54459E+03    0.23750E+00  0.23750E+00 -0.47500E+00  0.00000E+00  0.00000E+00  0.00000E+00    0.11000E+03  0.13540E+03 -0.24540E+03 -0.12080E+02 -0.14606E+02  0.23059E+03      982.00
  0.38140E+00  0.55032E+03    0.25000E+00  0.25000E+00 -0.50000E+00  0.00000E+00  0.00000E+00  0.00000E+00    0.11051E+03  0.13666E+03 -0.24717E+03 -0.11980E+02 -0.14351E+02  0.23369E+03      982.00
  0.39824E+00  0.55544E+03    0.26250E+00  0.26250E+00 -0.52500E+00  0.00000E+00  0.00000E+00  0.00000E+00    0.11073E+03  0.13794E+03 -0.24867E+03 -0.11848E+02 -0.14060E+02  0.23650E+03      982.00
  0.41503E+00  0.55562E+03    0.27500E+00  0.27500E+00 -0.55000E+00  0.00000E+00  0.00000E+00  0.00000E+00    0.10999E+03  0.13827E+03 -0.24826E+03 -0.11585E+02 -0.13670E+02  0.23698E+03      982.00
  0.43179E+00  0.55598E+03    0.28750E+00  0.28750E+00 -0.57500E+00  0.00000E+00  0.00000E+00  0.00000E+00    0.10933E+03  0.13860E+03 -0.24794E+03 -0.11328E+02 -0.13250E+02  0.23752E+03      982.00
  0.44851E+00  0.55635E+03    0.30000E+00  0.30000E+00 -0.60000E+00  0.00000E+00  0.00000E+00  0.00000E+00    0.10866E+03  0.13899E+03 -0.24765E+03 -0.11101E+02 -0.12807E+02  0.23804E+03      982.00
  0.46520E+00  0.55673E+03    0.31250E+00  0.31250E+00 -0.62500E+00  0.00000E+00  0.00000E+00  0.00000E+00    0.10795E+03  0.13945E+03 -0.24740E+03 -0.10904E+02 -0.12343E+02  0.23852E+03      982.00
  0.48186E+00  0.55707E+03    0.32500E+00  0.32500E+00 -0.65000E+00  0.00000E+00  0.00000E+00  0.00000E+00    0.10723E+03  0.13994E+03 -0.24717E+03 -0.10729E+02 -0.11860E+02  0.23895E+03      982.00
  0.49850E+00  0.55736E+03    0.33750E+00  0.33750E+00 -0.67500E+00  0.00000E+00  0.00000E+00  0.00000E+00    0.10653E+03  0.14044E+03 -0.24697E+03 -0.10573E+02 -0.11365E+02  0.23933E+03      982.00
  0.51512E+00  0.55760E+03    0.35000E+00  0.35000E+00 -0.70000E+00  0.00000E+00  0.00000E+00  0.00000E+00    0.10588E+03  0.14091E+03 -0.24679E+03 -0.10428E+02 -0.10864E+02  0.23964E+03      982.00
  0.53172E+00  0.55782E+03    0.36250E+00  0.36250E+00 -0.72500E+00  0.00000E+00  0.00000E+00  0.00000E+00    0.10523E+03  0.14141E+03 -0.24664E+03 -0.10288E+02 -0.10372E+02  0.23991E+03      982.00
  0.54830E+00  0.55795E+03    0.37500E+00  0.37500E+00 -0.75000E+00  0.00000E+00  0.00000E+00  0.00000E+00    0.10471E+03  0.14180E+03 -0.24651E+03 -0.10145E+02 -0.98894E+01  0.24011E+03      982.00
  0.56487E+00  0.55806E+03    0.38750E+00  0.38750E+00 -0.77500E+00  0.00000E+00  0.00000E+00  0.00000E+00    0.10419E+03  0.14221E+03 -0.24639E+03 -0.99923E+01 -0.94291E+01  0.24026E+03      982.00
  0.58142E+00  0.55808E+03    0.40000E+00  0.40000E+00 -0.80000E+00  0.00000E+00  0.00000E+00  0.00000E+00    0.10382E+03  0.14247E+03 -0.24629E+03 -0.98288E+01 -0.89951E+01  0.24036E+03      982.00
  0.59797E+00  0.55806E+03    0.41250E+00  0.41250E+00 -0.82500E+00  0.00000E+00  0.00000E+00  0.00000E+00    0.10344E+03  0.14275E+03 -0.24619E+03 -0.96443E+01 -0.85845E+01  0.24042E+03      982.00
  0.61451E+00  0.55798E+03    0.42500E+00  0.42500E+00 -0.85000E+00  0.00000E+00  0.00000E+00  0.00000E+00    0.10312E+03  0.14298E+03 -0.24610E+03 -0.94478E+01 -0.82115E+01  0.24042E+03      982.00
  0.63105E+00  0.55789E+03    0.43750E+00  0.43750E+00 -0.87500E+00  0.00000E+00  0.00000E+00  0.00000E+00    0.10295E+03  0.14306E+03 -0.24601E+03 -0.92310E+01 -0.78680E+01  0.24043E+03      982.00
  0.64759E+00  0.55772E+03    0.45000E+00  0.45000E+00 -0.90000E+00  0.00000E+00  0.00000E+00  0.00000E+00    0.10276E+03  0.14315E+03 -0.24591E+03 -0.89824E+01 -0.75451E+01  0.24038E+03      982.00
  0.66413E+00  0.55752E+03    0.46250E+00  0.46250E+00 -0.92500E+00  0.00000E+00  0.00000E+00  0.00000E+00    0.10265E+03  0.14316E+03 -0.24581E+03 -0.87223E+01 -0.72524E+01  0.24032E+03      982.00
  0.68066E+00  0.55737E+03    0.47500E+00  0.47500E+00 -0.95000E+00  0.00000E+00  0.00000E+00  0.00000E+00    0.10266E+03  0.14306E+03 -0.24572E+03 -0.84848E+01 -0.70195E+01  0.24029E+03      982.00
  0.69719E+00  0.55724E+03    0.48750E+00  0.48750E+00 -0.97500E+00  0.00000E+00  0.00000E+00  0.00000E+00    0.10260E+03  0.14304E+03 -0.24564E+03 -0.82561E+01 -0.68251E+01  0.24027E+03      982.00
  0.71372E+00  0.55709E+03    0.50000E+00  0.50000E+00 -0.10000E+01  0.00000E+00  0.00000E+00  0.00000E+00    0.10253E+03  0.14301E+03 -0.24554E+03 -0.79223E+01 -0.65695E+01  0.24024E+03      982.00
