          Evm          Svm            E11          E22          E33          E23          E13          E12         SDEV11       SDEV22       SDEV33       SDEV23       SDEV13       SDEV12      TEMP
  0.00000E+00  0.15535E+03    0.00000E+00  0.00000E+00  0.00000E+00  0.00000E+00  0.00000E+00  0.00000E+00    0.52198E+02  0.45863E+02 -0.98061E+02  0.47446E+01  0.89394E+01  0.26826E+02      982.00
  0.23672E-01  0.17002E+03    0.12500E-01  0.12500E-01 -0.25000E-01  0.00000E+00  0.00000E+00  0.00000E+00    0.50826E+02  0.53863E+02 -0.10469E+03  0.31848E+01  0.88073E+01  0.36404E+02      982.00
  0.46763E-01  0.17438E+03    0.25000E-01  0.25000E-01 -0.50000E-01  0.00000E+00  0.00000E+00  0.00000E+00    0.49180E+02  0.56974E+02 -0.10615E+03  0.17014E+01  0.84055E+01  0.39948E+02      982.00
  0.69591E-01  0.17804E+03    0.37500E-01  0.37500E-01 -0.75000E-01  0.00000E+00  0.00000E+00  0.00000E+00    0.48881E+02  0.58431E+02 -0.10731E+03  0.13235E+01  0.81152E+01  0.42887E+02      982.00
  0.92193E-01  0.18544E+03    0.50000E-01  0.50000E-01 -0.10000E+00  0.00000E+00  0.00000E+00  0.00000E+00    0.49638E+02  0.60465E+02 -0.11010E+03  0.15846E+01  0.79517E+01  0.47707E+02      982.00
  0.11446E+00  0.19882E+03    0.62500E-01  0.62500E-01 -0.12500E+00  0.00000E+00  0.00000E+00  0.00000E+00    0.51426E+02  0.63922E+02 -0.11535E+03  0.22074E+01  0.80007E+01  0.55586E+02      982.00
  0.13621E+00  0.21881E+03    0.75000E-01  0.75000E-01 -0.15000E+00  0.00000E+00  0.00000E+00  0.00000E+00    0.54341E+02  0.68917E+02 -0.12326E+03  0.31599E+01  0.82559E+01  0.66591E+02      982.00
  0.15734E+00  0.24772E+03    0.87500E-01  0.87500E-01 -0.17500E+00  0.00000E+00  0.00000E+00  0.00000E+00    0.58526E+02  0.76004E+02 -0.13453E+03  0.43313E+01  0.87863E+01  0.81910E+02      982.00
  0.17770E+00  0.28589E+03    0.10000E+00  0.10000E+00 -0.20000E+00  0.00000E+00  0.00000E+00  0.00000E+00    0.64007E+02  0.85158E+02 -0.14917E+03  0.56912E+01  0.95562E+01  0.10160E+03      982.00
  0.19727E+00  0.33107E+03    0.11250E+00  0.11250E+00 -0.22500E+00  0.00000E+00  0.00000E+00  0.00000E+00    0.70402E+02  0.95763E+02 -0.16616E+03  0.70874E+01  0.10486E+02  0.12452E+03      982.00
  0.21609E+00  0.37525E+03    0.12500E+00  0.12500E+00 -0.25000E+00  0.00000E+00  0.00000E+00  0.00000E+00    0.76750E+02  0.10591E+03 -0.18266E+03  0.83592E+01  0.11303E+02  0.14664E+03      982.00
  0.23434E+00  0.41335E+03    0.13750E+00  0.13750E+00 -0.27500E+00  0.00000E+00  0.00000E+00  0.00000E+00    0.82338E+02  0.11453E+03 -0.19687E+03  0.93704E+01  0.11882E+02  0.16553E+03      982.00
  0.25220E+00  0.44324E+03    0.15000E+00  0.15000E+00 -0.30000E+00  0.00000E+00  0.00000E+00  0.00000E+00    0.86857E+02  0.12112E+03 -0.20798E+03  0.10086E+02  0.12227E+02  0.18028E+03      982.00
  0.26980E+00  0.46644E+03    0.16250E+00  0.16250E+00 -0.32500E+00  0.00000E+00  0.00000E+00  0.00000E+00    0.90453E+02  0.12612E+03 -0.21657E+03  0.10556E+02  0.12395E+02  0.19173E+03      982.00
  0.28721E+00  0.48440E+03    0.17500E+00  0.17500E+00 -0.35000E+00  0.00000E+00  0.00000E+00  0.00000E+00    0.93299E+02  0.12987E+03 -0.22317E+03  0.10835E+02  0.12430E+02  0.20064E+03      982.00
  0.30449E+00  0.49862E+03    0.18750E+00  0.18750E+00 -0.37500E+00  0.00000E+00  0.00000E+00  0.00000E+00    0.95585E+02  0.13273E+03 -0.22832E+03  0.10963E+02  0.12379E+02  0.20775E+03      982.00
  0.32166E+00  0.50983E+03    0.20000E+00  0.20000E+00 -0.40000E+00  0.00000E+00  0.00000E+00  0.00000E+00    0.97402E+02  0.13491E+03 -0.23231E+03  0.10985E+02  0.12251E+02  0.21341E+03      982.00
  0.33875E+00  0.51892E+03    0.21250E+00  0.21250E+00 -0.42500E+00  0.00000E+00  0.00000E+00  0.00000E+00    0.98848E+02  0.13660E+03 -0.23545E+03  0.10900E+02  0.12087E+02  0.21808E+03      982.00
  0.35576E+00  0.52666E+03    0.22500E+00  0.22500E+00 -0.45000E+00  0.00000E+00  0.00000E+00  0.00000E+00    0.10004E+03  0.13800E+03 -0.23804E+03  0.10736E+02  0.11896E+02  0.22213E+03      982.00
  0.37271E+00  0.53311E+03    0.23750E+00  0.23750E+00 -0.47500E+00  0.00000E+00  0.00000E+00  0.00000E+00    0.10100E+03  0.13912E+03 -0.24011E+03  0.10508E+02  0.11682E+02  0.22558E+03      982.00
  0.38960E+00  0.53867E+03    0.25000E+00  0.25000E+00 -0.50000E+00  0.00000E+00  0.00000E+00  0.00000E+00    0.10177E+03  0.14007E+03 -0.24184E+03  0.10244E+02  0.11445E+02  0.22860E+03      982.00
  0.40644E+00  0.54347E+03    0.26250E+00  0.26250E+00 -0.52500E+00  0.00000E+00  0.00000E+00  0.00000E+00    0.10236E+03  0.14089E+03 -0.24325E+03  0.99301E+01  0.11198E+02  0.23125E+03      982.00
  0.42322E+00  0.54426E+03    0.27500E+00  0.27500E+00 -0.55000E+00  0.00000E+00  0.00000E+00  0.00000E+00    0.10219E+03  0.14092E+03 -0.24311E+03  0.95180E+01  0.10928E+02  0.23201E+03      982.00
  0.43997E+00  0.54512E+03    0.28750E+00  0.28750E+00 -0.57500E+00  0.00000E+00  0.00000E+00  0.00000E+00    0.10198E+03  0.14103E+03 -0.24301E+03  0.90767E+01  0.10656E+02  0.23278E+03      982.00
  0.45669E+00  0.54569E+03    0.30000E+00  0.30000E+00 -0.60000E+00  0.00000E+00  0.00000E+00  0.00000E+00    0.10184E+03  0.14100E+03 -0.24284E+03  0.86951E+01  0.10396E+02  0.23337E+03      982.00
  0.47338E+00  0.54628E+03    0.31250E+00  0.31250E+00 -0.62500E+00  0.00000E+00  0.00000E+00  0.00000E+00    0.10163E+03  0.14105E+03 -0.24268E+03  0.82987E+01  0.10125E+02  0.23397E+03      982.00
  0.49004E+00  0.54686E+03    0.32500E+00  0.32500E+00 -0.65000E+00  0.00000E+00  0.00000E+00  0.00000E+00    0.10139E+03  0.14115E+03 -0.24254E+03  0.79201E+01  0.98523E+01  0.23455E+03      982.00
  0.50667E+00  0.54743E+03    0.33750E+00  0.33750E+00 -0.67500E+00  0.00000E+00  0.00000E+00  0.00000E+00    0.10112E+03  0.14128E+03 -0.24240E+03  0.75625E+01  0.95749E+01  0.23510E+03      982.00
  0.52327E+00  0.54798E+03    0.35000E+00  0.35000E+00 -0.70000E+00  0.00000E+00  0.00000E+00  0.00000E+00    0.10083E+03  0.14144E+03 -0.24227E+03  0.72287E+01  0.92896E+01  0.23563E+03      982.00
  0.53985E+00  0.54851E+03    0.36250E+00  0.36250E+00 -0.72500E+00  0.00000E+00  0.00000E+00  0.00000E+00    0.10051E+03  0.14164E+03 -0.24215E+03  0.69215E+01  0.89934E+01  0.23613E+03      982.00
  0.55641E+00  0.54889E+03    0.37500E+00  0.37500E+00 -0.75000E+00  0.00000E+00  0.00000E+00  0.00000E+00    0.10021E+03  0.14179E+03 -0.24200E+03  0.66458E+01  0.86838E+01  0.23654E+03      982.00
  0.57294E+00  0.54939E+03    0.38750E+00  0.38750E+00 -0.77500E+00  0.00000E+00  0.00000E+00  0.00000E+00    0.99847E+02  0.14206E+03 -0.24190E+03  0.64019E+01  0.83569E+01  0.23700E+03      982.00
  0.58945E+00  0.54989E+03    0.40000E+00  0.40000E+00 -0.80000E+00  0.00000E+00  0.00000E+00  0.00000E+00    0.99483E+02  0.14235E+03 -0.24183E+03  0.61908E+01  0.80116E+01  0.23742E+03      982.00
  0.60594E+00  0.55027E+03    0.41250E+00  0.41250E+00 -0.82500E+00  0.00000E+00  0.00000E+00  0.00000E+00    0.99170E+02  0.14257E+03 -0.24174E+03  0.60142E+01  0.76428E+01  0.23777E+03      982.00
  0.62242E+00  0.55075E+03    0.42500E+00  0.42500E+00 -0.85000E+00  0.00000E+00  0.00000E+00  0.00000E+00    0.98834E+02  0.14288E+03 -0.24171E+03  0.58714E+01  0.72620E+01  0.23816E+03      982.00
  0.63888E+00  0.55121E+03    0.43750E+00  0.43750E+00 -0.87500E+00  0.00000E+00  0.00000E+00  0.00000E+00    0.98499E+02  0.14321E+03 -0.24171E+03  0.57571E+01  0.68624E+01  0.23849E+03      982.00
  0.65532E+00  0.55172E+03    0.45000E+00  0.45000E+00 -0.90000E+00  0.00000E+00  0.00000E+00  0.00000E+00    0.98098E+02  0.14365E+03 -0.24175E+03  0.56628E+01  0.64417E+01  0.23883E+03      982.00
  0.67175E+00  0.55212E+03    0.46250E+00  0.46250E+00 -0.92500E+00  0.00000E+00  0.00000E+00  0.00000E+00    0.97795E+02  0.14400E+03 -0.24179E+03  0.55972E+01  0.60182E+01  0.23909E+03      982.00
  0.68817E+00  0.55250E+03    0.47500E+00  0.47500E+00 -0.95000E+00  0.00000E+00  0.00000E+00  0.00000E+00    0.97537E+02  0.14432E+03 -0.24186E+03  0.55480E+01  0.55937E+01  0.23931E+03      982.00
  0.70459E+00  0.55285E+03    0.48750E+00  0.48750E+00 -0.97500E+00  0.00000E+00  0.00000E+00  0.00000E+00    0.97322E+02  0.14463E+03 -0.24195E+03  0.55083E+01  0.51750E+01  0.23950E+03      982.00
  0.72100E+00  0.55316E+03    0.50000E+00  0.50000E+00 -0.10000E+01  0.00000E+00  0.00000E+00  0.00000E+00    0.97152E+02  0.14490E+03 -0.24205E+03  0.54715E+01  0.47696E+01  0.23965E+03      982.00
