          Evm          Svm            E11          E22          E33          E23          E13          E12         SDEV11       SDEV22       SDEV33       SDEV23       SDEV13       SDEV12      TEMP
  0.00000E+00  0.21478E+03    0.00000E+00  0.00000E+00  0.00000E+00  0.00000E+00  0.00000E+00  0.00000E+00    0.68743E+02  0.70119E+02 -0.13886E+03 -0.14054E+02 -0.11971E+02  0.23954E+02      982.00
  0.24245E-01  0.20562E+03    0.12500E-01  0.12500E-01 -0.25000E-01  0.00000E+00  0.00000E+00  0.00000E+00    0.65159E+02  0.68083E+02 -0.13324E+03 -0.11786E+02 -0.98631E+01  0.23217E+02      982.00
  0.48545E-01  0.19050E+03    0.25000E-01  0.25000E-01 -0.50000E-01  0.00000E+00  0.00000E+00  0.00000E+00    0.60333E+02  0.63699E+02 -0.12403E+03 -0.90453E+01 -0.72155E+01  0.20560E+02      982.00
  0.72961E-01  0.18742E+03    0.37500E-01  0.37500E-01 -0.75000E-01  0.00000E+00  0.00000E+00  0.00000E+00    0.58974E+02  0.63034E+02 -0.12201E+03 -0.73966E+01 -0.56411E+01  0.21293E+02      982.00
  0.97373E-01  0.19264E+03    0.50000E-01  0.50000E-01 -0.10000E+00  0.00000E+00  0.00000E+00  0.00000E+00    0.59952E+02  0.64977E+02 -0.12493E+03 -0.65065E+01 -0.48181E+01  0.24355E+02      982.00
  0.12169E+00  0.20492E+03    0.62500E-01  0.62500E-01 -0.12500E+00  0.00000E+00  0.00000E+00  0.00000E+00    0.62797E+02  0.69120E+02 -0.13192E+03 -0.61446E+01 -0.45031E+01  0.29621E+02      982.00
  0.14583E+00  0.22356E+03    0.75000E-01  0.75000E-01 -0.15000E+00  0.00000E+00  0.00000E+00  0.00000E+00    0.67192E+02  0.75264E+02 -0.14246E+03 -0.61355E+01 -0.45250E+01  0.36945E+02      982.00
  0.16973E+00  0.24660E+03    0.87500E-01  0.87500E-01 -0.17500E+00  0.00000E+00  0.00000E+00  0.00000E+00    0.72515E+02  0.82855E+02 -0.15537E+03 -0.63042E+01 -0.47288E+01  0.45572E+02      982.00
  0.19336E+00  0.27036E+03    0.10000E+00  0.10000E+00 -0.20000E+00  0.00000E+00  0.00000E+00  0.00000E+00    0.77837E+02  0.90839E+02 -0.16868E+03 -0.65033E+01 -0.49891E+01  0.54004E+02      982.00
  0.21675E+00  0.29172E+03    0.11250E+00  0.11250E+00 -0.22500E+00  0.00000E+00  0.00000E+00  0.00000E+00    0.82509E+02  0.98253E+02 -0.18076E+03 -0.66552E+01 -0.52363E+01  0.61048E+02      982.00
  0.23999E+00  0.30923E+03    0.12500E+00  0.12500E+00 -0.25000E+00  0.00000E+00  0.00000E+00  0.00000E+00    0.86336E+02  0.10456E+03 -0.19089E+03 -0.67471E+01 -0.54543E+01  0.66230E+02      982.00
  0.26314E+00  0.32298E+03    0.13750E+00  0.13750E+00 -0.27500E+00  0.00000E+00  0.00000E+00  0.00000E+00    0.89435E+02  0.10969E+03 -0.19913E+03 -0.68029E+01 -0.56544E+01  0.69664E+02      982.00
  0.28626E+00  0.33349E+03    0.15000E+00  0.15000E+00 -0.30000E+00  0.00000E+00  0.00000E+00  0.00000E+00    0.91965E+02  0.11377E+03 -0.20574E+03 -0.68474E+01 -0.58516E+01  0.71595E+02      982.00
  0.30939E+00  0.34153E+03    0.16250E+00  0.16250E+00 -0.32500E+00  0.00000E+00  0.00000E+00  0.00000E+00    0.94036E+02  0.11707E+03 -0.21111E+03 -0.68883E+01 -0.60389E+01  0.72384E+02      982.00
  0.33257E+00  0.34763E+03    0.17500E+00  0.17500E+00 -0.35000E+00  0.00000E+00  0.00000E+00  0.00000E+00    0.95872E+02  0.11966E+03 -0.21553E+03 -0.69689E+01 -0.62662E+01  0.72193E+02      982.00
  0.35582E+00  0.35227E+03    0.18750E+00  0.18750E+00 -0.37500E+00  0.00000E+00  0.00000E+00  0.00000E+00    0.97512E+02  0.12173E+03 -0.21924E+03 -0.70861E+01 -0.65235E+01  0.71244E+02      982.00
  0.37916E+00  0.35597E+03    0.20000E+00  0.20000E+00 -0.40000E+00  0.00000E+00  0.00000E+00  0.00000E+00    0.99080E+02  0.12341E+03 -0.22249E+03 -0.72431E+01 -0.68147E+01  0.69736E+02      982.00
  0.40260E+00  0.35898E+03    0.21250E+00  0.21250E+00 -0.42500E+00  0.00000E+00  0.00000E+00  0.00000E+00    0.10056E+03  0.12485E+03 -0.22541E+03 -0.74499E+01 -0.71415E+01  0.67784E+02      982.00
  0.42615E+00  0.36158E+03    0.22500E+00  0.22500E+00 -0.45000E+00  0.00000E+00  0.00000E+00  0.00000E+00    0.10200E+03  0.12611E+03 -0.22811E+03 -0.76888E+01 -0.74898E+01  0.65529E+02      982.00
  0.44980E+00  0.36393E+03    0.23750E+00  0.23750E+00 -0.47500E+00  0.00000E+00  0.00000E+00  0.00000E+00    0.10344E+03  0.12724E+03 -0.23068E+03 -0.79707E+01 -0.78702E+01  0.63027E+02      982.00
  0.47357E+00  0.36379E+03    0.25000E+00  0.25000E+00 -0.50000E+00  0.00000E+00  0.00000E+00  0.00000E+00    0.10429E+03  0.12734E+03 -0.23163E+03 -0.81143E+01 -0.80649E+01  0.60105E+02      982.00
  0.49745E+00  0.36373E+03    0.26250E+00  0.26250E+00 -0.52500E+00  0.00000E+00  0.00000E+00  0.00000E+00    0.10510E+03  0.12748E+03 -0.23258E+03 -0.82426E+01 -0.82334E+01  0.57183E+02      982.00
  0.52143E+00  0.36407E+03    0.27500E+00  0.27500E+00 -0.55000E+00  0.00000E+00  0.00000E+00  0.00000E+00    0.10597E+03  0.12772E+03 -0.23369E+03 -0.83805E+01 -0.84090E+01  0.54431E+02      982.00
  0.54550E+00  0.36470E+03    0.28750E+00  0.28750E+00 -0.57500E+00  0.00000E+00  0.00000E+00  0.00000E+00    0.10689E+03  0.12804E+03 -0.23493E+03 -0.85387E+01 -0.86040E+01  0.51796E+02      982.00
  0.56966E+00  0.36547E+03    0.30000E+00  0.30000E+00 -0.60000E+00  0.00000E+00  0.00000E+00  0.00000E+00    0.10785E+03  0.12836E+03 -0.23620E+03 -0.86769E+01 -0.87674E+01  0.49206E+02      982.00
  0.59389E+00  0.36646E+03    0.31250E+00  0.31250E+00 -0.62500E+00  0.00000E+00  0.00000E+00  0.00000E+00    0.10882E+03  0.12873E+03 -0.23755E+03 -0.87656E+01 -0.88774E+01  0.46769E+02      982.00
  0.61820E+00  0.36772E+03    0.32500E+00  0.32500E+00 -0.65000E+00  0.00000E+00  0.00000E+00  0.00000E+00    0.10983E+03  0.12918E+03 -0.23901E+03 -0.88722E+01 -0.90031E+01  0.44450E+02      982.00
  0.64257E+00  0.36918E+03    0.33750E+00  0.33750E+00 -0.67500E+00  0.00000E+00  0.00000E+00  0.00000E+00    0.11088E+03  0.12967E+03 -0.24054E+03 -0.89671E+01 -0.91134E+01  0.42235E+02      982.00
  0.66701E+00  0.37080E+03    0.35000E+00  0.35000E+00 -0.70000E+00  0.00000E+00  0.00000E+00  0.00000E+00    0.11194E+03  0.13019E+03 -0.24214E+03 -0.90492E+01 -0.92077E+01  0.40125E+02      982.00
  0.69149E+00  0.37256E+03    0.36250E+00  0.36250E+00 -0.72500E+00  0.00000E+00  0.00000E+00  0.00000E+00    0.11305E+03  0.13073E+03 -0.24378E+03 -0.91696E+01 -0.93421E+01  0.38039E+02      982.00
  0.71603E+00  0.37450E+03    0.37500E+00  0.37500E+00 -0.75000E+00  0.00000E+00  0.00000E+00  0.00000E+00    0.11416E+03  0.13132E+03 -0.24548E+03 -0.92183E+01 -0.93982E+01  0.36138E+02      982.00
  0.74061E+00  0.37655E+03    0.38750E+00  0.38750E+00 -0.77500E+00  0.00000E+00  0.00000E+00  0.00000E+00    0.11528E+03  0.13195E+03 -0.24723E+03 -0.92538E+01 -0.94386E+01  0.34332E+02      982.00
  0.76523E+00  0.37871E+03    0.40000E+00  0.40000E+00 -0.80000E+00  0.00000E+00  0.00000E+00  0.00000E+00    0.11641E+03  0.13259E+03 -0.24900E+03 -0.92773E+01 -0.94652E+01  0.32617E+02      982.00
  0.78989E+00  0.38095E+03    0.41250E+00  0.41250E+00 -0.82500E+00  0.00000E+00  0.00000E+00  0.00000E+00    0.11754E+03  0.13326E+03 -0.25080E+03 -0.92895E+01 -0.94785E+01  0.30989E+02      982.00
  0.81458E+00  0.38334E+03    0.42500E+00  0.42500E+00 -0.85000E+00  0.00000E+00  0.00000E+00  0.00000E+00    0.11872E+03  0.13395E+03 -0.25267E+03 -0.93272E+01 -0.95228E+01  0.29401E+02      982.00
  0.83930E+00  0.38569E+03    0.43750E+00  0.43750E+00 -0.87500E+00  0.00000E+00  0.00000E+00  0.00000E+00    0.11985E+03  0.13464E+03 -0.25449E+03 -0.93156E+01 -0.95088E+01  0.27935E+02      982.00
  0.86404E+00  0.38811E+03    0.45000E+00  0.45000E+00 -0.90000E+00  0.00000E+00  0.00000E+00  0.00000E+00    0.12098E+03  0.13535E+03 -0.25632E+03 -0.92888E+01 -0.94793E+01  0.26553E+02      982.00
  0.88881E+00  0.39055E+03    0.46250E+00  0.46250E+00 -0.92500E+00  0.00000E+00  0.00000E+00  0.00000E+00    0.12210E+03  0.13606E+03 -0.25816E+03 -0.92538E+01 -0.94406E+01  0.25243E+02      982.00
  0.91359E+00  0.39302E+03    0.47500E+00  0.47500E+00 -0.95000E+00  0.00000E+00  0.00000E+00  0.00000E+00    0.12321E+03  0.13677E+03 -0.25998E+03 -0.92113E+01 -0.93935E+01  0.24000E+02      982.00
  0.93840E+00  0.39548E+03    0.48750E+00  0.48750E+00 -0.97500E+00  0.00000E+00  0.00000E+00  0.00000E+00    0.12430E+03  0.13749E+03 -0.26179E+03 -0.91619E+01 -0.93388E+01  0.22822E+02      982.00
  0.96322E+00  0.39795E+03    0.50000E+00  0.50000E+00 -0.10000E+01  0.00000E+00  0.00000E+00  0.00000E+00    0.12539E+03  0.13820E+03 -0.26358E+03 -0.91061E+01 -0.92772E+01  0.21706E+02      982.00
