          Evm          Svm            E11          E22          E33          E23          E13          E12         SDEV11       SDEV22       SDEV33       SDEV23       SDEV13       SDEV12      TEMP
  0.00000E+00  0.17948E+03    0.00000E+00  0.00000E+00  0.00000E+00  0.00000E+00  0.00000E+00  0.00000E+00    0.57936E+02  0.55199E+02 -0.11313E+03 -0.14949E+02 -0.14425E+02  0.26542E+02      982.00
  0.23638E-01  0.17926E+03    0.12500E-01  0.12500E-01 -0.25000E-01  0.00000E+00  0.00000E+00  0.00000E+00    0.57237E+02  0.55494E+02 -0.11273E+03 -0.13911E+02 -0.13442E+02  0.28377E+02      982.00
  0.47221E-01  0.18285E+03    0.25000E-01  0.25000E-01 -0.50000E-01  0.00000E+00  0.00000E+00  0.00000E+00    0.57371E+02  0.56971E+02 -0.11434E+03 -0.13447E+02 -0.12818E+02  0.31518E+02      982.00
  0.70671E-01  0.19101E+03    0.37500E-01  0.37500E-01 -0.75000E-01  0.00000E+00  0.00000E+00  0.00000E+00    0.58460E+02  0.59839E+02 -0.11830E+03 -0.13383E+02 -0.12409E+02  0.36496E+02      982.00
  0.93896E-01  0.20504E+03    0.50000E-01  0.50000E-01 -0.10000E+00  0.00000E+00  0.00000E+00  0.00000E+00    0.60751E+02  0.64384E+02 -0.12514E+03 -0.13536E+02 -0.12123E+02  0.44002E+02      982.00
  0.11678E+00  0.22890E+03    0.62500E-01  0.62500E-01 -0.12500E+00  0.00000E+00  0.00000E+00  0.00000E+00    0.64889E+02  0.71663E+02 -0.13655E+03 -0.13805E+02 -0.11915E+02  0.56007E+02      982.00
  0.13915E+00  0.26872E+03    0.75000E-01  0.75000E-01 -0.15000E+00  0.00000E+00  0.00000E+00  0.00000E+00    0.71505E+02  0.83443E+02 -0.15495E+03 -0.13989E+02 -0.11700E+02  0.75465E+02      982.00
  0.16078E+00  0.30454E+03    0.87500E-01  0.87500E-01 -0.17500E+00  0.00000E+00  0.00000E+00  0.00000E+00    0.76105E+02  0.94771E+02 -0.17088E+03 -0.13497E+02 -0.10979E+02  0.92872E+02      982.00
  0.18182E+00  0.30755E+03    0.10000E+00  0.10000E+00 -0.20000E+00  0.00000E+00  0.00000E+00  0.00000E+00    0.76229E+02  0.95932E+02 -0.17216E+03 -0.12828E+02 -0.10058E+02  0.94532E+02      982.00
  0.20281E+00  0.32315E+03    0.11250E+00  0.11250E+00 -0.22500E+00  0.00000E+00  0.00000E+00  0.00000E+00    0.79310E+02  0.99679E+02 -0.17899E+03 -0.11936E+02 -0.91064E+01  0.10223E+03      982.00
  0.22358E+00  0.34801E+03    0.12500E+00  0.12500E+00 -0.25000E+00  0.00000E+00  0.00000E+00  0.00000E+00    0.83894E+02  0.10602E+03 -0.18991E+03 -0.11124E+02 -0.83490E+01  0.11404E+03      982.00
  0.24404E+00  0.37286E+03    0.13750E+00  0.13750E+00 -0.27500E+00  0.00000E+00  0.00000E+00  0.00000E+00    0.88358E+02  0.11253E+03 -0.20089E+03 -0.10393E+02 -0.77101E+01  0.12554E+03      982.00
  0.26425E+00  0.39347E+03    0.15000E+00  0.15000E+00 -0.30000E+00  0.00000E+00  0.00000E+00  0.00000E+00    0.92071E+02  0.11809E+03 -0.21016E+03 -0.97248E+01 -0.71465E+01  0.13479E+03      982.00
  0.28428E+00  0.40941E+03    0.16250E+00  0.16250E+00 -0.32500E+00  0.00000E+00  0.00000E+00  0.00000E+00    0.95003E+02  0.12252E+03 -0.21752E+03 -0.90996E+01 -0.66317E+01  0.14166E+03      982.00
  0.30420E+00  0.42124E+03    0.17500E+00  0.17500E+00 -0.35000E+00  0.00000E+00  0.00000E+00  0.00000E+00    0.97254E+02  0.12597E+03 -0.22322E+03 -0.85032E+01 -0.61471E+01  0.14649E+03      982.00
  0.32407E+00  0.42979E+03    0.18750E+00  0.18750E+00 -0.37500E+00  0.00000E+00  0.00000E+00  0.00000E+00    0.99006E+02  0.12861E+03 -0.22761E+03 -0.79323E+01 -0.56918E+01  0.14968E+03      982.00
  0.34393E+00  0.43578E+03    0.20000E+00  0.20000E+00 -0.40000E+00  0.00000E+00  0.00000E+00  0.00000E+00    0.10034E+03  0.13062E+03 -0.23096E+03 -0.73648E+01 -0.52427E+01  0.15160E+03      982.00
  0.36381E+00  0.43964E+03    0.21250E+00  0.21250E+00 -0.42500E+00  0.00000E+00  0.00000E+00  0.00000E+00    0.10137E+03  0.13212E+03 -0.23350E+03 -0.68280E+01 -0.48232E+01  0.15242E+03      982.00
  0.38373E+00  0.44179E+03    0.22500E+00  0.22500E+00 -0.45000E+00  0.00000E+00  0.00000E+00  0.00000E+00    0.10214E+03  0.13324E+03 -0.23538E+03 -0.63168E+01 -0.44257E+01  0.15233E+03      982.00
  0.40370E+00  0.44228E+03    0.23750E+00  0.23750E+00 -0.47500E+00  0.00000E+00  0.00000E+00  0.00000E+00    0.10274E+03  0.13393E+03 -0.23667E+03 -0.58501E+01 -0.40736E+01  0.15132E+03      982.00
  0.42377E+00  0.43827E+03    0.25000E+00  0.25000E+00 -0.50000E+00  0.00000E+00  0.00000E+00  0.00000E+00    0.10263E+03  0.13323E+03 -0.23586E+03 -0.54608E+01 -0.37819E+01  0.14842E+03      982.00
  0.44395E+00  0.43417E+03    0.26250E+00  0.26250E+00 -0.52500E+00  0.00000E+00  0.00000E+00  0.00000E+00    0.10243E+03  0.13260E+03 -0.23503E+03 -0.50833E+01 -0.34973E+01  0.14540E+03      982.00
  0.46425E+00  0.42990E+03    0.27500E+00  0.27500E+00 -0.55000E+00  0.00000E+00  0.00000E+00  0.00000E+00    0.10221E+03  0.13196E+03 -0.23417E+03 -0.47439E+01 -0.32467E+01  0.14221E+03      982.00
  0.48468E+00  0.42558E+03    0.28750E+00  0.28750E+00 -0.57500E+00  0.00000E+00  0.00000E+00  0.00000E+00    0.10200E+03  0.13132E+03 -0.23332E+03 -0.44303E+01 -0.30197E+01  0.13892E+03      982.00
  0.50524E+00  0.42105E+03    0.30000E+00  0.30000E+00 -0.60000E+00  0.00000E+00  0.00000E+00  0.00000E+00    0.10179E+03  0.13065E+03 -0.23243E+03 -0.41698E+01 -0.28397E+01  0.13543E+03      982.00
  0.52594E+00  0.41621E+03    0.31250E+00  0.31250E+00 -0.62500E+00  0.00000E+00  0.00000E+00  0.00000E+00    0.10156E+03  0.12991E+03 -0.23147E+03 -0.39725E+01 -0.27166E+01  0.13166E+03      982.00
  0.54679E+00  0.41165E+03    0.32500E+00  0.32500E+00 -0.65000E+00  0.00000E+00  0.00000E+00  0.00000E+00    0.10137E+03  0.12924E+03 -0.23061E+03 -0.37781E+01 -0.25956E+01  0.12800E+03      982.00
  0.56780E+00  0.40699E+03    0.33750E+00  0.33750E+00 -0.67500E+00  0.00000E+00  0.00000E+00  0.00000E+00    0.10120E+03  0.12854E+03 -0.22974E+03 -0.36408E+01 -0.25251E+01  0.12418E+03      982.00
  0.58897E+00  0.40235E+03    0.35000E+00  0.35000E+00 -0.70000E+00  0.00000E+00  0.00000E+00  0.00000E+00    0.10105E+03  0.12785E+03 -0.22890E+03 -0.35441E+01 -0.24908E+01  0.12027E+03      982.00
  0.61031E+00  0.39780E+03    0.36250E+00  0.36250E+00 -0.72500E+00  0.00000E+00  0.00000E+00  0.00000E+00    0.10094E+03  0.12717E+03 -0.22811E+03 -0.34867E+01 -0.24911E+01  0.11632E+03      982.00
  0.63181E+00  0.39315E+03    0.37500E+00  0.37500E+00 -0.75000E+00  0.00000E+00  0.00000E+00  0.00000E+00    0.10084E+03  0.12646E+03 -0.22731E+03 -0.34978E+01 -0.25532E+01  0.11220E+03      982.00
  0.65349E+00  0.38901E+03    0.38750E+00  0.38750E+00 -0.77500E+00  0.00000E+00  0.00000E+00  0.00000E+00    0.10081E+03  0.12586E+03 -0.22668E+03 -0.34953E+01 -0.26003E+01  0.10830E+03      982.00
  0.67534E+00  0.38495E+03    0.40000E+00  0.40000E+00 -0.80000E+00  0.00000E+00  0.00000E+00  0.00000E+00    0.10083E+03  0.12527E+03 -0.22609E+03 -0.35456E+01 -0.26948E+01  0.10434E+03      982.00
  0.69737E+00  0.38112E+03    0.41250E+00  0.41250E+00 -0.82500E+00  0.00000E+00  0.00000E+00  0.00000E+00    0.10089E+03  0.12471E+03 -0.22560E+03 -0.36264E+01 -0.28155E+01  0.10042E+03      982.00
  0.71956E+00  0.37740E+03    0.42500E+00  0.42500E+00 -0.85000E+00  0.00000E+00  0.00000E+00  0.00000E+00    0.10099E+03  0.12416E+03 -0.22514E+03 -0.37650E+01 -0.29878E+01  0.96447E+02      982.00
  0.74194E+00  0.37412E+03    0.43750E+00  0.43750E+00 -0.87500E+00  0.00000E+00  0.00000E+00  0.00000E+00    0.10115E+03  0.12370E+03 -0.22485E+03 -0.38930E+01 -0.31484E+01  0.92658E+02      982.00
  0.76447E+00  0.37113E+03    0.45000E+00  0.45000E+00 -0.90000E+00  0.00000E+00  0.00000E+00  0.00000E+00    0.10137E+03  0.12329E+03 -0.22466E+03 -0.40404E+01 -0.33251E+01  0.88954E+02      982.00
  0.78717E+00  0.36845E+03    0.46250E+00  0.46250E+00 -0.92500E+00  0.00000E+00  0.00000E+00  0.00000E+00    0.10164E+03  0.12294E+03 -0.22457E+03 -0.42031E+01 -0.35141E+01  0.85346E+02      982.00
  0.81003E+00  0.36615E+03    0.47500E+00  0.47500E+00 -0.95000E+00  0.00000E+00  0.00000E+00  0.00000E+00    0.10197E+03  0.12266E+03 -0.22464E+03 -0.43649E+01 -0.37007E+01  0.81875E+02      982.00
  0.83304E+00  0.36409E+03    0.48750E+00  0.48750E+00 -0.97500E+00  0.00000E+00  0.00000E+00  0.00000E+00    0.10234E+03  0.12243E+03 -0.22477E+03 -0.45483E+01 -0.39053E+01  0.78485E+02      982.00
  0.85619E+00  0.36234E+03    0.50000E+00  0.50000E+00 -0.10000E+01  0.00000E+00  0.00000E+00  0.00000E+00    0.10276E+03  0.12225E+03 -0.22501E+03 -0.47357E+01 -0.41116E+01  0.75212E+02      982.00
