          Evm          Svm            E11          E22          E33          E23          E13          E12         SDEV11       SDEV22       SDEV33       SDEV23       SDEV13       SDEV12      TEMP
  0.00000E+00  0.17183E+03    0.00000E+00  0.00000E+00  0.00000E+00  0.00000E+00  0.00000E+00  0.00000E+00    0.52644E+02  0.56748E+02 -0.10939E+03 -0.13464E+02 -0.12637E+02  0.22841E+02      982.00
  0.23874E-01  0.17189E+03    0.12500E-01  0.12500E-01 -0.25000E-01  0.00000E+00  0.00000E+00  0.00000E+00    0.52945E+02  0.56186E+02 -0.10913E+03 -0.12708E+02 -0.11787E+02  0.24769E+02      982.00
  0.47682E-01  0.17581E+03    0.25000E-01  0.25000E-01 -0.50000E-01  0.00000E+00  0.00000E+00  0.00000E+00    0.54438E+02  0.56521E+02 -0.11096E+03 -0.12304E+02 -0.11486E+02  0.28014E+02      982.00
  0.71349E-01  0.18401E+03    0.37500E-01  0.37500E-01 -0.75000E-01  0.00000E+00  0.00000E+00  0.00000E+00    0.57179E+02  0.57846E+02 -0.11502E+03 -0.12091E+02 -0.11507E+02  0.32938E+02      982.00
  0.94790E-01  0.19785E+03    0.50000E-01  0.50000E-01 -0.10000E+00  0.00000E+00  0.00000E+00  0.00000E+00    0.61451E+02  0.60445E+02 -0.12190E+03 -0.11942E+02 -0.11664E+02  0.40312E+02      982.00
  0.11789E+00  0.22100E+03    0.62500E-01  0.62500E-01 -0.12500E+00  0.00000E+00  0.00000E+00  0.00000E+00    0.68149E+02  0.64996E+02 -0.13314E+03 -0.11865E+02 -0.11898E+02  0.51959E+02      982.00
  0.14049E+00  0.26059E+03    0.75000E-01  0.75000E-01 -0.15000E+00  0.00000E+00  0.00000E+00  0.00000E+00    0.79270E+02  0.72372E+02 -0.15164E+03 -0.11793E+02 -0.12056E+02  0.71365E+02      982.00
  0.16231E+00  0.29932E+03    0.87500E-01  0.87500E-01 -0.17500E+00  0.00000E+00  0.00000E+00  0.00000E+00    0.90893E+02  0.78145E+02 -0.16904E+03 -0.11247E+02 -0.11627E+02  0.90175E+02      982.00
  0.18349E+00  0.30431E+03    0.10000E+00  0.10000E+00 -0.20000E+00  0.00000E+00  0.00000E+00  0.00000E+00    0.92332E+02  0.78969E+02 -0.17130E+03 -0.10376E+02 -0.11170E+02  0.92640E+02      982.00
  0.20460E+00  0.32027E+03    0.11250E+00  0.11250E+00 -0.22500E+00  0.00000E+00  0.00000E+00  0.00000E+00    0.95613E+02  0.82754E+02 -0.17837E+03 -0.93924E+01 -0.10426E+02  0.10045E+03      982.00
  0.22548E+00  0.34581E+03    0.12500E+00  0.12500E+00 -0.25000E+00  0.00000E+00  0.00000E+00  0.00000E+00    0.10156E+03  0.88092E+02 -0.18965E+03 -0.85957E+01 -0.96976E+01  0.11257E+03      982.00
  0.24605E+00  0.37118E+03    0.13750E+00  0.13750E+00 -0.27500E+00  0.00000E+00  0.00000E+00  0.00000E+00    0.10774E+03  0.93165E+02 -0.20091E+03 -0.79134E+01 -0.90221E+01  0.12432E+03      982.00
  0.26634E+00  0.39213E+03    0.15000E+00  0.15000E+00 -0.30000E+00  0.00000E+00  0.00000E+00  0.00000E+00    0.11305E+03  0.97300E+02 -0.21035E+03 -0.73033E+01 -0.83972E+01  0.13373E+03      982.00
  0.28646E+00  0.40818E+03    0.16250E+00  0.16250E+00 -0.32500E+00  0.00000E+00  0.00000E+00  0.00000E+00    0.11730E+03  0.10048E+03 -0.21779E+03 -0.67439E+01 -0.78136E+01  0.14066E+03      982.00
  0.30647E+00  0.41996E+03    0.17500E+00  0.17500E+00 -0.35000E+00  0.00000E+00  0.00000E+00  0.00000E+00    0.12060E+03  0.10288E+03 -0.22349E+03 -0.62224E+01 -0.72617E+01  0.14546E+03      982.00
  0.32643E+00  0.42835E+03    0.18750E+00  0.18750E+00 -0.37500E+00  0.00000E+00  0.00000E+00  0.00000E+00    0.12312E+03  0.10469E+03 -0.22781E+03 -0.57291E+01 -0.67312E+01  0.14858E+03      982.00
  0.34637E+00  0.43414E+03    0.20000E+00  0.20000E+00 -0.40000E+00  0.00000E+00  0.00000E+00  0.00000E+00    0.12502E+03  0.10608E+03 -0.23110E+03 -0.52603E+01 -0.62191E+01  0.15038E+03      982.00
  0.36633E+00  0.43777E+03    0.21250E+00  0.21250E+00 -0.42500E+00  0.00000E+00  0.00000E+00  0.00000E+00    0.12641E+03  0.10714E+03 -0.23355E+03 -0.48197E+01 -0.57313E+01  0.15107E+03      982.00
  0.38634E+00  0.43982E+03    0.22500E+00  0.22500E+00 -0.45000E+00  0.00000E+00  0.00000E+00  0.00000E+00    0.12748E+03  0.10794E+03 -0.23541E+03 -0.44202E+01 -0.52890E+01  0.15091E+03      982.00
  0.40641E+00  0.44003E+03    0.23750E+00  0.23750E+00 -0.47500E+00  0.00000E+00  0.00000E+00  0.00000E+00    0.12802E+03  0.10857E+03 -0.23659E+03 -0.40428E+01 -0.48533E+01  0.14975E+03      982.00
  0.42657E+00  0.43592E+03    0.25000E+00  0.25000E+00 -0.50000E+00  0.00000E+00  0.00000E+00  0.00000E+00    0.12737E+03  0.10837E+03 -0.23574E+03 -0.37460E+01 -0.45092E+01  0.14676E+03      982.00
  0.44685E+00  0.43169E+03    0.26250E+00  0.26250E+00 -0.52500E+00  0.00000E+00  0.00000E+00  0.00000E+00    0.12676E+03  0.10812E+03 -0.23488E+03 -0.34695E+01 -0.41892E+01  0.14362E+03      982.00
  0.46726E+00  0.42730E+03    0.27500E+00  0.27500E+00 -0.55000E+00  0.00000E+00  0.00000E+00  0.00000E+00    0.12612E+03  0.10787E+03 -0.23399E+03 -0.32262E+01 -0.39063E+01  0.14032E+03      982.00
  0.48779E+00  0.42279E+03    0.28750E+00  0.28750E+00 -0.57500E+00  0.00000E+00  0.00000E+00  0.00000E+00    0.12546E+03  0.10763E+03 -0.23309E+03 -0.30180E+01 -0.36627E+01  0.13687E+03      982.00
  0.50847E+00  0.41818E+03    0.30000E+00  0.30000E+00 -0.60000E+00  0.00000E+00  0.00000E+00  0.00000E+00    0.12478E+03  0.10741E+03 -0.23219E+03 -0.28460E+01 -0.34594E+01  0.13328E+03      982.00
  0.52929E+00  0.41327E+03    0.31250E+00  0.31250E+00 -0.62500E+00  0.00000E+00  0.00000E+00  0.00000E+00    0.12402E+03  0.10719E+03 -0.23121E+03 -0.27334E+01 -0.33201E+01  0.12941E+03      982.00
  0.55027E+00  0.40868E+03    0.32500E+00  0.32500E+00 -0.65000E+00  0.00000E+00  0.00000E+00  0.00000E+00    0.12335E+03  0.10700E+03 -0.23035E+03 -0.26202E+01 -0.31840E+01  0.12566E+03      982.00
  0.57140E+00  0.40398E+03    0.33750E+00  0.33750E+00 -0.67500E+00  0.00000E+00  0.00000E+00  0.00000E+00    0.12265E+03  0.10684E+03 -0.22949E+03 -0.25595E+01 -0.31058E+01  0.12175E+03      982.00
  0.59271E+00  0.39937E+03    0.35000E+00  0.35000E+00 -0.70000E+00  0.00000E+00  0.00000E+00  0.00000E+00    0.12197E+03  0.10670E+03 -0.22867E+03 -0.25348E+01 -0.30676E+01  0.11778E+03      982.00
  0.61418E+00  0.39487E+03    0.36250E+00  0.36250E+00 -0.72500E+00  0.00000E+00  0.00000E+00  0.00000E+00    0.12131E+03  0.10660E+03 -0.22791E+03 -0.25451E+01 -0.30687E+01  0.11378E+03      982.00
  0.63582E+00  0.39042E+03    0.37500E+00  0.37500E+00 -0.75000E+00  0.00000E+00  0.00000E+00  0.00000E+00    0.12066E+03  0.10652E+03 -0.22718E+03 -0.26003E+01 -0.31196E+01  0.10970E+03      982.00
  0.65764E+00  0.38626E+03    0.38750E+00  0.38750E+00 -0.77500E+00  0.00000E+00  0.00000E+00  0.00000E+00    0.12007E+03  0.10649E+03 -0.22657E+03 -0.26752E+01 -0.31928E+01  0.10569E+03      982.00
  0.67964E+00  0.38234E+03    0.40000E+00  0.40000E+00 -0.80000E+00  0.00000E+00  0.00000E+00  0.00000E+00    0.11953E+03  0.10651E+03 -0.22604E+03 -0.27785E+01 -0.32978E+01  0.10171E+03      982.00
  0.70181E+00  0.37851E+03    0.41250E+00  0.41250E+00 -0.82500E+00  0.00000E+00  0.00000E+00  0.00000E+00    0.11900E+03  0.10656E+03 -0.22556E+03 -0.29370E+01 -0.34636E+01  0.97682E+02      982.00
  0.72416E+00  0.37514E+03    0.42500E+00  0.42500E+00 -0.85000E+00  0.00000E+00  0.00000E+00  0.00000E+00    0.11857E+03  0.10667E+03 -0.22523E+03 -0.30851E+01 -0.36184E+01  0.93830E+02      982.00
  0.74667E+00  0.37206E+03    0.43750E+00  0.43750E+00 -0.87500E+00  0.00000E+00  0.00000E+00  0.00000E+00    0.11820E+03  0.10682E+03 -0.22502E+03 -0.32514E+01 -0.37935E+01  0.90060E+02      982.00
  0.76935E+00  0.36930E+03    0.45000E+00  0.45000E+00 -0.90000E+00  0.00000E+00  0.00000E+00  0.00000E+00    0.11789E+03  0.10702E+03 -0.22492E+03 -0.34324E+01 -0.39848E+01  0.86383E+02      982.00
  0.79219E+00  0.36685E+03    0.46250E+00  0.46250E+00 -0.92500E+00  0.00000E+00  0.00000E+00  0.00000E+00    0.11765E+03  0.10727E+03 -0.22493E+03 -0.36242E+01 -0.41880E+01  0.82812E+02      982.00
  0.81518E+00  0.36472E+03    0.47500E+00  0.47500E+00 -0.95000E+00  0.00000E+00  0.00000E+00  0.00000E+00    0.11747E+03  0.10757E+03 -0.22505E+03 -0.38230E+01 -0.43990E+01  0.79353E+02      982.00
  0.83832E+00  0.36297E+03    0.48750E+00  0.48750E+00 -0.97500E+00  0.00000E+00  0.00000E+00  0.00000E+00    0.11738E+03  0.10793E+03 -0.22531E+03 -0.40148E+01 -0.46021E+01  0.76040E+02      982.00
  0.86160E+00  0.36129E+03    0.50000E+00  0.50000E+00 -0.10000E+01  0.00000E+00  0.00000E+00  0.00000E+00    0.11728E+03  0.10829E+03 -0.22556E+03 -0.42450E+01 -0.48483E+01  0.72728E+02      982.00
