          Evm          Svm            E11          E22          E33          E23          E13          E12         SDEV11       SDEV22       SDEV33       SDEV23       SDEV13       SDEV12      TEMP
  0.00000E+00  0.16771E+03    0.00000E+00  0.00000E+00  0.00000E+00  0.00000E+00  0.00000E+00  0.00000E+00    0.48575E+02  0.61961E+02 -0.11054E+03 -0.37064E+01 -0.60448E+01  0.10782E+02      982.00
  0.24717E-01  0.16679E+03    0.12500E-01  0.12500E-01 -0.25000E-01  0.00000E+00  0.00000E+00  0.00000E+00    0.49353E+02  0.60547E+02 -0.10990E+03 -0.31527E+01 -0.53727E+01  0.11992E+02      982.00
  0.49427E-01  0.17485E+03    0.25000E-01  0.25000E-01 -0.50000E-01  0.00000E+00  0.00000E+00  0.00000E+00    0.55205E+02  0.59814E+02 -0.11502E+03 -0.31758E+01 -0.57575E+01  0.14847E+02      982.00
  0.74094E-01  0.18826E+03    0.37500E-01  0.37500E-01 -0.75000E-01  0.00000E+00  0.00000E+00  0.00000E+00    0.65146E+02  0.58114E+02 -0.12326E+03 -0.33776E+01 -0.67157E+01  0.18721E+02      982.00
  0.98647E-01  0.19915E+03    0.50000E-01  0.50000E-01 -0.10000E+00  0.00000E+00  0.00000E+00  0.00000E+00    0.72625E+02  0.56938E+02 -0.12956E+03 -0.32281E+01 -0.70711E+01  0.22547E+02      982.00
  0.12304E+00  0.21203E+03    0.62500E-01  0.62500E-01 -0.12500E+00  0.00000E+00  0.00000E+00  0.00000E+00    0.78868E+02  0.58069E+02 -0.13694E+03 -0.32423E+01 -0.67944E+01  0.27516E+02      982.00
  0.14726E+00  0.23000E+03    0.75000E-01  0.75000E-01 -0.15000E+00  0.00000E+00  0.00000E+00  0.00000E+00    0.86204E+02  0.61034E+02 -0.14724E+03 -0.35289E+01 -0.64933E+01  0.34072E+02      982.00
  0.17127E+00  0.25196E+03    0.87500E-01  0.87500E-01 -0.17500E+00  0.00000E+00  0.00000E+00  0.00000E+00    0.94732E+02  0.65081E+02 -0.15981E+03 -0.39750E+01 -0.63370E+01  0.41605E+02      982.00
  0.19505E+00  0.27488E+03    0.10000E+00  0.10000E+00 -0.20000E+00  0.00000E+00  0.00000E+00  0.00000E+00    0.10357E+03  0.69402E+02 -0.17297E+03 -0.44722E+01 -0.62728E+01  0.48959E+02      982.00
  0.21865E+00  0.29571E+03    0.11250E+00  0.11250E+00 -0.22500E+00  0.00000E+00  0.00000E+00  0.00000E+00    0.11169E+03  0.73389E+02 -0.18508E+03 -0.49767E+01 -0.62415E+01  0.55031E+02      982.00
  0.24212E+00  0.31321E+03    0.12500E+00  0.12500E+00 -0.25000E+00  0.00000E+00  0.00000E+00  0.00000E+00    0.11863E+03  0.76827E+02 -0.19546E+03 -0.54493E+01 -0.62233E+01  0.59507E+02      982.00
  0.26552E+00  0.32721E+03    0.13750E+00  0.13750E+00 -0.27500E+00  0.00000E+00  0.00000E+00  0.00000E+00    0.12428E+03  0.79741E+02 -0.20402E+03 -0.58791E+01 -0.62137E+01  0.62460E+02      982.00
  0.28890E+00  0.33822E+03    0.15000E+00  0.15000E+00 -0.30000E+00  0.00000E+00  0.00000E+00  0.00000E+00    0.12875E+03  0.82299E+02 -0.21105E+03 -0.63107E+01 -0.62433E+01  0.64065E+02      982.00
  0.31230E+00  0.34697E+03    0.16250E+00  0.16250E+00 -0.32500E+00  0.00000E+00  0.00000E+00  0.00000E+00    0.13233E+03  0.84581E+02 -0.21691E+03 -0.67221E+01 -0.63097E+01  0.64694E+02      982.00
  0.33575E+00  0.35373E+03    0.17500E+00  0.17500E+00 -0.35000E+00  0.00000E+00  0.00000E+00  0.00000E+00    0.13507E+03  0.86706E+02 -0.22177E+03 -0.71679E+01 -0.64395E+01  0.64375E+02      982.00
  0.35926E+00  0.35913E+03    0.18750E+00  0.18750E+00 -0.37500E+00  0.00000E+00  0.00000E+00  0.00000E+00    0.13715E+03  0.88787E+02 -0.22593E+03 -0.76193E+01 -0.65995E+01  0.63404E+02      982.00
  0.38285E+00  0.36362E+03    0.20000E+00  0.20000E+00 -0.40000E+00  0.00000E+00  0.00000E+00  0.00000E+00    0.13881E+03  0.90813E+02 -0.22962E+03 -0.80709E+01 -0.68050E+01  0.61977E+02      982.00
  0.40653E+00  0.36748E+03    0.21250E+00  0.21250E+00 -0.42500E+00  0.00000E+00  0.00000E+00  0.00000E+00    0.14018E+03  0.92801E+02 -0.23298E+03 -0.85281E+01 -0.70586E+01  0.60183E+02      982.00
  0.43031E+00  0.37094E+03    0.22500E+00  0.22500E+00 -0.45000E+00  0.00000E+00  0.00000E+00  0.00000E+00    0.14135E+03  0.94769E+02 -0.23612E+03 -0.89948E+01 -0.73611E+01  0.58105E+02      982.00
  0.45418E+00  0.37112E+03    0.23750E+00  0.23750E+00 -0.47500E+00  0.00000E+00  0.00000E+00  0.00000E+00    0.14109E+03  0.96058E+02 -0.23715E+03 -0.91238E+01 -0.74616E+01  0.55546E+02      982.00
  0.47814E+00  0.37159E+03    0.25000E+00  0.25000E+00 -0.50000E+00  0.00000E+00  0.00000E+00  0.00000E+00    0.14103E+03  0.97281E+02 -0.23831E+03 -0.93560E+01 -0.76311E+01  0.52981E+02      982.00
  0.50219E+00  0.37233E+03    0.26250E+00  0.26250E+00 -0.52500E+00  0.00000E+00  0.00000E+00  0.00000E+00    0.14111E+03  0.98479E+02 -0.23959E+03 -0.95270E+01 -0.77842E+01  0.50528E+02      982.00
  0.52632E+00  0.37332E+03    0.27500E+00  0.27500E+00 -0.55000E+00  0.00000E+00  0.00000E+00  0.00000E+00    0.14130E+03  0.99663E+02 -0.24096E+03 -0.96885E+01 -0.79457E+01  0.48145E+02      982.00
  0.55052E+00  0.37449E+03    0.28750E+00  0.28750E+00 -0.57500E+00  0.00000E+00  0.00000E+00  0.00000E+00    0.14162E+03  0.10079E+03 -0.24241E+03 -0.98136E+01 -0.81036E+01  0.45815E+02      982.00
  0.57480E+00  0.37594E+03    0.30000E+00  0.30000E+00 -0.60000E+00  0.00000E+00  0.00000E+00  0.00000E+00    0.14204E+03  0.10193E+03 -0.24397E+03 -0.99584E+01 -0.82814E+01  0.43568E+02      982.00
  0.59913E+00  0.37759E+03    0.31250E+00  0.31250E+00 -0.62500E+00  0.00000E+00  0.00000E+00  0.00000E+00    0.14259E+03  0.10304E+03 -0.24562E+03 -0.10088E+02 -0.84639E+01  0.41384E+02      982.00
  0.62353E+00  0.37944E+03    0.32500E+00  0.32500E+00 -0.65000E+00  0.00000E+00  0.00000E+00  0.00000E+00    0.14325E+03  0.10410E+03 -0.24735E+03 -0.10202E+02 -0.86495E+01  0.39260E+02      982.00
  0.64797E+00  0.38149E+03    0.33750E+00  0.33750E+00 -0.67500E+00  0.00000E+00  0.00000E+00  0.00000E+00    0.14398E+03  0.10519E+03 -0.24917E+03 -0.10288E+02 -0.88256E+01  0.37241E+02      982.00
  0.67247E+00  0.38365E+03    0.35000E+00  0.35000E+00 -0.70000E+00  0.00000E+00  0.00000E+00  0.00000E+00    0.14487E+03  0.10615E+03 -0.25102E+03 -0.10362E+02 -0.90096E+01  0.35225E+02      982.00
  0.69700E+00  0.38595E+03    0.36250E+00  0.36250E+00 -0.72500E+00  0.00000E+00  0.00000E+00  0.00000E+00    0.14580E+03  0.10712E+03 -0.25292E+03 -0.10416E+02 -0.91858E+01  0.33292E+02      982.00
  0.72158E+00  0.38833E+03    0.37500E+00  0.37500E+00 -0.75000E+00  0.00000E+00  0.00000E+00  0.00000E+00    0.14688E+03  0.10797E+03 -0.25484E+03 -0.10439E+02 -0.93498E+01  0.31383E+02      982.00
  0.74619E+00  0.39077E+03    0.38750E+00  0.38750E+00 -0.77500E+00  0.00000E+00  0.00000E+00  0.00000E+00    0.14796E+03  0.10881E+03 -0.25676E+03 -0.10438E+02 -0.94915E+01  0.29550E+02      982.00
  0.77083E+00  0.39324E+03    0.40000E+00  0.40000E+00 -0.80000E+00  0.00000E+00  0.00000E+00  0.00000E+00    0.14912E+03  0.10956E+03 -0.25867E+03 -0.10401E+02 -0.96077E+01  0.27763E+02      982.00
  0.79549E+00  0.39570E+03    0.41250E+00  0.41250E+00 -0.82500E+00  0.00000E+00  0.00000E+00  0.00000E+00    0.15026E+03  0.11029E+03 -0.26055E+03 -0.10335E+02 -0.96907E+01  0.26047E+02      982.00
  0.82019E+00  0.39814E+03    0.42500E+00  0.42500E+00 -0.85000E+00  0.00000E+00  0.00000E+00  0.00000E+00    0.15137E+03  0.11101E+03 -0.26239E+03 -0.10242E+02 -0.97371E+01  0.24412E+02      982.00
  0.84490E+00  0.40052E+03    0.43750E+00  0.43750E+00 -0.87500E+00  0.00000E+00  0.00000E+00  0.00000E+00    0.15245E+03  0.11171E+03 -0.26416E+03 -0.10123E+02 -0.97502E+01  0.22847E+02      982.00
  0.86963E+00  0.40285E+03    0.45000E+00  0.45000E+00 -0.90000E+00  0.00000E+00  0.00000E+00  0.00000E+00    0.15340E+03  0.11250E+03 -0.26590E+03 -0.99954E+01 -0.97281E+01  0.21390E+02      982.00
  0.89438E+00  0.40514E+03    0.46250E+00  0.46250E+00 -0.92500E+00  0.00000E+00  0.00000E+00  0.00000E+00    0.15429E+03  0.11329E+03 -0.26758E+03 -0.98563E+01 -0.96794E+01  0.20010E+02      982.00
  0.91915E+00  0.40738E+03    0.47500E+00  0.47500E+00 -0.95000E+00  0.00000E+00  0.00000E+00  0.00000E+00    0.15510E+03  0.11413E+03 -0.26923E+03 -0.97174E+01 -0.96139E+01  0.18722E+02      982.00
  0.94393E+00  0.40971E+03    0.48750E+00  0.48750E+00 -0.97500E+00  0.00000E+00  0.00000E+00  0.00000E+00    0.15590E+03  0.11502E+03 -0.27092E+03 -0.96182E+01 -0.95380E+01  0.17504E+02      982.00
  0.96873E+00  0.41201E+03    0.50000E+00  0.50000E+00 -0.10000E+01  0.00000E+00  0.00000E+00  0.00000E+00    0.15655E+03  0.11603E+03 -0.27258E+03 -0.94653E+01 -0.94493E+01  0.16395E+02      982.00
