          Evm          Svm            E11          E22          E33          E23          E13          E12         SDEV11       SDEV22       SDEV33       SDEV23       SDEV13       SDEV12      TEMP
  0.00000E+00  0.17434E+03    0.00000E+00  0.00000E+00  0.00000E+00  0.00000E+00  0.00000E+00  0.00000E+00    0.61011E+02  0.52316E+02 -0.11333E+03  0.96791E+01  0.96771E+01  0.17128E+02      982.00
  0.24376E-01  0.17959E+03    0.12500E-01  0.12500E-01 -0.25000E-01  0.00000E+00  0.00000E+00  0.00000E+00    0.60547E+02  0.55780E+02 -0.11633E+03  0.95263E+01  0.89918E+01  0.20603E+02      982.00
  0.48666E-01  0.19162E+03    0.25000E-01  0.25000E-01 -0.50000E-01  0.00000E+00  0.00000E+00  0.00000E+00    0.60021E+02  0.63265E+02 -0.12329E+03  0.10248E+02  0.85038E+01  0.25684E+02      982.00
  0.72793E-01  0.19311E+03    0.37500E-01  0.37500E-01 -0.75000E-01  0.00000E+00  0.00000E+00  0.00000E+00    0.56947E+02  0.67046E+02 -0.12399E+03  0.99651E+01  0.70243E+01  0.26941E+02      982.00
  0.96871E-01  0.19498E+03    0.50000E-01  0.50000E-01 -0.10000E+00  0.00000E+00  0.00000E+00  0.00000E+00    0.55697E+02  0.69112E+02 -0.12481E+03  0.90696E+01  0.56135E+01  0.28813E+02      982.00
  0.12088E+00  0.20531E+03    0.62500E-01  0.62500E-01 -0.12500E+00  0.00000E+00  0.00000E+00  0.00000E+00    0.56837E+02  0.73497E+02 -0.13033E+03  0.83813E+01  0.48886E+01  0.33863E+02      982.00
  0.14468E+00  0.22372E+03    0.75000E-01  0.75000E-01 -0.15000E+00  0.00000E+00  0.00000E+00  0.00000E+00    0.59769E+02  0.80414E+02 -0.14018E+03  0.80711E+01  0.46837E+01  0.41853E+02      982.00
  0.16818E+00  0.24831E+03    0.87500E-01  0.87500E-01 -0.17500E+00  0.00000E+00  0.00000E+00  0.00000E+00    0.63834E+02  0.89354E+02 -0.15319E+03  0.80191E+01  0.47625E+01  0.51991E+02      982.00
  0.19131E+00  0.27493E+03    0.10000E+00  0.10000E+00 -0.20000E+00  0.00000E+00  0.00000E+00  0.00000E+00    0.68106E+02  0.99069E+02 -0.16717E+03  0.80196E+01  0.49235E+01  0.62505E+02      982.00
  0.21412E+00  0.29928E+03    0.11250E+00  0.11250E+00 -0.22500E+00  0.00000E+00  0.00000E+00  0.00000E+00    0.71860E+02  0.10816E+03 -0.18002E+03  0.79425E+01  0.50557E+01  0.71631E+02      982.00
  0.23667E+00  0.31928E+03    0.12500E+00  0.12500E+00 -0.25000E+00  0.00000E+00  0.00000E+00  0.00000E+00    0.74873E+02  0.11589E+03 -0.19076E+03  0.77726E+01  0.51315E+01  0.78608E+02      982.00
  0.25908E+00  0.33472E+03    0.13750E+00  0.13750E+00 -0.27500E+00  0.00000E+00  0.00000E+00  0.00000E+00    0.77213E+02  0.12212E+03 -0.19933E+03  0.75540E+01  0.51699E+01  0.83417E+02      982.00
  0.28141E+00  0.34621E+03    0.15000E+00  0.15000E+00 -0.30000E+00  0.00000E+00  0.00000E+00  0.00000E+00    0.79104E+02  0.12695E+03 -0.20605E+03  0.73213E+01  0.52016E+01  0.86368E+02      982.00
  0.30373E+00  0.35457E+03    0.16250E+00  0.16250E+00 -0.32500E+00  0.00000E+00  0.00000E+00  0.00000E+00    0.80711E+02  0.13061E+03 -0.21132E+03  0.70994E+01  0.52414E+01  0.87839E+02      982.00
  0.32608E+00  0.36048E+03    0.17500E+00  0.17500E+00 -0.35000E+00  0.00000E+00  0.00000E+00  0.00000E+00    0.82135E+02  0.13332E+03 -0.21545E+03  0.69000E+01  0.52919E+01  0.88144E+02      982.00
  0.34849E+00  0.36457E+03    0.18750E+00  0.18750E+00 -0.37500E+00  0.00000E+00  0.00000E+00  0.00000E+00    0.83457E+02  0.13532E+03 -0.21877E+03  0.67445E+01  0.53698E+01  0.87527E+02      982.00
  0.37099E+00  0.36725E+03    0.20000E+00  0.20000E+00 -0.40000E+00  0.00000E+00  0.00000E+00  0.00000E+00    0.84758E+02  0.13672E+03 -0.22148E+03  0.66572E+01  0.55003E+01  0.86138E+02      982.00
  0.39361E+00  0.36902E+03    0.21250E+00  0.21250E+00 -0.42500E+00  0.00000E+00  0.00000E+00  0.00000E+00    0.86105E+02  0.13767E+03 -0.22378E+03  0.66168E+01  0.56570E+01  0.84225E+02      982.00
  0.41635E+00  0.37011E+03    0.22500E+00  0.22500E+00 -0.45000E+00  0.00000E+00  0.00000E+00  0.00000E+00    0.87437E+02  0.13833E+03 -0.22577E+03  0.66473E+01  0.58628E+01  0.81875E+02      982.00
  0.43923E+00  0.37080E+03    0.23750E+00  0.23750E+00 -0.47500E+00  0.00000E+00  0.00000E+00  0.00000E+00    0.88806E+02  0.13879E+03 -0.22759E+03  0.67287E+01  0.60956E+01  0.79220E+02      982.00
  0.46224E+00  0.36900E+03    0.25000E+00  0.25000E+00 -0.50000E+00  0.00000E+00  0.00000E+00  0.00000E+00    0.89829E+02  0.13805E+03 -0.22788E+03  0.67540E+01  0.62021E+01  0.76001E+02      982.00
  0.48540E+00  0.36733E+03    0.26250E+00  0.26250E+00 -0.52500E+00  0.00000E+00  0.00000E+00  0.00000E+00    0.90783E+02  0.13742E+03 -0.22820E+03  0.68315E+01  0.63555E+01  0.72725E+02      982.00
  0.50870E+00  0.36584E+03    0.27500E+00  0.27500E+00 -0.55000E+00  0.00000E+00  0.00000E+00  0.00000E+00    0.91777E+02  0.13681E+03 -0.22859E+03  0.69466E+01  0.65424E+01  0.69464E+02      982.00
  0.53213E+00  0.36481E+03    0.28750E+00  0.28750E+00 -0.57500E+00  0.00000E+00  0.00000E+00  0.00000E+00    0.92810E+02  0.13636E+03 -0.22917E+03  0.70723E+01  0.67343E+01  0.66376E+02      982.00
  0.55569E+00  0.36402E+03    0.30000E+00  0.30000E+00 -0.60000E+00  0.00000E+00  0.00000E+00  0.00000E+00    0.93858E+02  0.13596E+03 -0.22982E+03  0.71992E+01  0.69155E+01  0.63362E+02      982.00
  0.57936E+00  0.36338E+03    0.31250E+00  0.31250E+00 -0.62500E+00  0.00000E+00  0.00000E+00  0.00000E+00    0.94929E+02  0.13558E+03 -0.23051E+03  0.73294E+01  0.70891E+01  0.60386E+02      982.00
  0.60315E+00  0.36316E+03    0.32500E+00  0.32500E+00 -0.65000E+00  0.00000E+00  0.00000E+00  0.00000E+00    0.96034E+02  0.13534E+03 -0.23137E+03  0.74652E+01  0.72662E+01  0.57587E+02      982.00
  0.62704E+00  0.36325E+03    0.33750E+00  0.33750E+00 -0.67500E+00  0.00000E+00  0.00000E+00  0.00000E+00    0.97174E+02  0.13518E+03 -0.23236E+03  0.76172E+01  0.74610E+01  0.54911E+02      982.00
  0.65103E+00  0.36347E+03    0.35000E+00  0.35000E+00 -0.70000E+00  0.00000E+00  0.00000E+00  0.00000E+00    0.98327E+02  0.13505E+03 -0.23337E+03  0.77593E+01  0.76325E+01  0.52279E+02      982.00
  0.67511E+00  0.36392E+03    0.36250E+00  0.36250E+00 -0.72500E+00  0.00000E+00  0.00000E+00  0.00000E+00    0.99480E+02  0.13498E+03 -0.23446E+03  0.78582E+01  0.77497E+01  0.49801E+02      982.00
  0.69927E+00  0.36467E+03    0.37500E+00  0.37500E+00 -0.75000E+00  0.00000E+00  0.00000E+00  0.00000E+00    0.10066E+03  0.13501E+03 -0.23567E+03  0.79717E+01  0.78832E+01  0.47447E+02      982.00
  0.72350E+00  0.36562E+03    0.38750E+00  0.38750E+00 -0.77500E+00  0.00000E+00  0.00000E+00  0.00000E+00    0.10186E+03  0.13509E+03 -0.23695E+03  0.80756E+01  0.80030E+01  0.45199E+02      982.00
  0.74780E+00  0.36675E+03    0.40000E+00  0.40000E+00 -0.80000E+00  0.00000E+00  0.00000E+00  0.00000E+00    0.10307E+03  0.13523E+03 -0.23830E+03  0.81686E+01  0.81084E+01  0.43056E+02      982.00
  0.77217E+00  0.36805E+03    0.41250E+00  0.41250E+00 -0.82500E+00  0.00000E+00  0.00000E+00  0.00000E+00    0.10429E+03  0.13542E+03 -0.23971E+03  0.82503E+01  0.81992E+01  0.41016E+02      982.00
  0.79659E+00  0.36946E+03    0.42500E+00  0.42500E+00 -0.85000E+00  0.00000E+00  0.00000E+00  0.00000E+00    0.10553E+03  0.13562E+03 -0.24114E+03  0.83598E+01  0.83312E+01  0.39009E+02      982.00
  0.82107E+00  0.37106E+03    0.43750E+00  0.43750E+00 -0.87500E+00  0.00000E+00  0.00000E+00  0.00000E+00    0.10676E+03  0.13589E+03 -0.24265E+03  0.84126E+01  0.83875E+01  0.37172E+02      982.00
  0.84559E+00  0.37278E+03    0.45000E+00  0.45000E+00 -0.90000E+00  0.00000E+00  0.00000E+00  0.00000E+00    0.10799E+03  0.13621E+03 -0.24420E+03  0.84540E+01  0.84301E+01  0.35427E+02      982.00
  0.87016E+00  0.37461E+03    0.46250E+00  0.46250E+00 -0.92500E+00  0.00000E+00  0.00000E+00  0.00000E+00    0.10922E+03  0.13656E+03 -0.24578E+03  0.84853E+01  0.84608E+01  0.33768E+02      982.00
  0.89476E+00  0.37651E+03    0.47500E+00  0.47500E+00 -0.95000E+00  0.00000E+00  0.00000E+00  0.00000E+00    0.11044E+03  0.13693E+03 -0.24738E+03  0.85103E+01  0.84830E+01  0.32185E+02      982.00
  0.91940E+00  0.37850E+03    0.48750E+00  0.48750E+00 -0.97500E+00  0.00000E+00  0.00000E+00  0.00000E+00    0.11166E+03  0.13734E+03 -0.24900E+03  0.85221E+01  0.84914E+01  0.30688E+02      982.00
  0.94407E+00  0.38059E+03    0.50000E+00  0.50000E+00 -0.10000E+01  0.00000E+00  0.00000E+00  0.00000E+00    0.11290E+03  0.13777E+03 -0.25068E+03  0.85506E+01  0.85307E+01  0.29237E+02      982.00
