          Evm          Svm            E11          E22          E33          E23          E13          E12         SDEV11       SDEV22       SDEV33       SDEV23       SDEV13       SDEV12      TEMP
  0.00000E+00  0.16980E+03    0.00000E+00  0.00000E+00  0.00000E+00  0.00000E+00  0.00000E+00  0.00000E+00    0.55314E+02  0.53216E+02 -0.10853E+03 -0.58971E+01 -0.98660E+01  0.25372E+02      982.00
  0.23968E-01  0.18215E+03    0.12500E-01  0.12500E-01 -0.25000E-01  0.00000E+00  0.00000E+00  0.00000E+00    0.62654E+02  0.52103E+02 -0.11476E+03 -0.65990E+01 -0.94662E+01  0.31963E+02      982.00
  0.47594E-01  0.19153E+03    0.25000E-01  0.25000E-01 -0.50000E-01  0.00000E+00  0.00000E+00  0.00000E+00    0.70321E+02  0.48786E+02 -0.11911E+03 -0.67120E+01 -0.76453E+01  0.36997E+02      982.00
  0.70914E-01  0.18242E+03    0.37500E-01  0.37500E-01 -0.75000E-01  0.00000E+00  0.00000E+00  0.00000E+00    0.68894E+02  0.45008E+02 -0.11390E+03 -0.61320E+01 -0.53514E+01  0.33966E+02      982.00
  0.94328E-01  0.18542E+03    0.50000E-01  0.50000E-01 -0.10000E+00  0.00000E+00  0.00000E+00  0.00000E+00    0.71294E+02  0.43667E+02 -0.11496E+03 -0.68096E+01 -0.55318E+01  0.35789E+02      982.00
  0.11758E+00  0.19748E+03    0.62500E-01  0.62500E-01 -0.12500E+00  0.00000E+00  0.00000E+00  0.00000E+00    0.76911E+02  0.43669E+02 -0.12058E+03 -0.78217E+01 -0.65729E+01  0.41408E+02      982.00
  0.14047E+00  0.21764E+03    0.75000E-01  0.75000E-01 -0.15000E+00  0.00000E+00  0.00000E+00  0.00000E+00    0.85348E+02  0.44685E+02 -0.13003E+03 -0.89553E+01 -0.80113E+01  0.50499E+02      982.00
  0.16288E+00  0.24606E+03    0.87500E-01  0.87500E-01 -0.17500E+00  0.00000E+00  0.00000E+00  0.00000E+00    0.96595E+02  0.46572E+02 -0.14317E+03 -0.10153E+02 -0.96384E+01  0.63145E+02      982.00
  0.18470E+00  0.28054E+03    0.10000E+00  0.10000E+00 -0.20000E+00  0.00000E+00  0.00000E+00  0.00000E+00    0.10959E+03  0.49273E+02 -0.15886E+03 -0.11251E+02 -0.11219E+02  0.78385E+02      982.00
  0.20593E+00  0.31600E+03    0.11250E+00  0.11250E+00 -0.22500E+00  0.00000E+00  0.00000E+00  0.00000E+00    0.12232E+03  0.52529E+02 -0.17485E+03 -0.12027E+02 -0.12440E+02  0.94017E+02      982.00
  0.22668E+00  0.34793E+03    0.12500E+00  0.12500E+00 -0.25000E+00  0.00000E+00  0.00000E+00  0.00000E+00    0.13309E+03  0.56104E+02 -0.18920E+03 -0.12415E+02 -0.13152E+02  0.10815E+03      982.00
  0.24707E+00  0.37386E+03    0.13750E+00  0.13750E+00 -0.27500E+00  0.00000E+00  0.00000E+00  0.00000E+00    0.14135E+03  0.59588E+02 -0.20094E+03 -0.12430E+02 -0.13420E+02  0.11959E+03      982.00
  0.26723E+00  0.39393E+03    0.15000E+00  0.15000E+00 -0.30000E+00  0.00000E+00  0.00000E+00  0.00000E+00    0.14745E+03  0.62725E+02 -0.21017E+03 -0.12175E+02 -0.13368E+02  0.12836E+03      982.00
  0.28724E+00  0.40908E+03    0.16250E+00  0.16250E+00 -0.32500E+00  0.00000E+00  0.00000E+00  0.00000E+00    0.15186E+03  0.65476E+02 -0.21733E+03 -0.11748E+02 -0.13111E+02  0.13484E+03      982.00
  0.30716E+00  0.42043E+03    0.17500E+00  0.17500E+00 -0.35000E+00  0.00000E+00  0.00000E+00  0.00000E+00    0.15507E+03  0.67823E+02 -0.22290E+03 -0.11218E+02 -0.12714E+02  0.13953E+03      982.00
  0.32704E+00  0.42878E+03    0.18750E+00  0.18750E+00 -0.37500E+00  0.00000E+00  0.00000E+00  0.00000E+00    0.15742E+03  0.69797E+02 -0.22722E+03 -0.10626E+02 -0.12226E+02  0.14276E+03      982.00
  0.34691E+00  0.43472E+03    0.20000E+00  0.20000E+00 -0.40000E+00  0.00000E+00  0.00000E+00  0.00000E+00    0.15904E+03  0.71538E+02 -0.23057E+03 -0.10006E+02 -0.11689E+02  0.14481E+03      982.00
  0.36680E+00  0.43881E+03    0.21250E+00  0.21250E+00 -0.42500E+00  0.00000E+00  0.00000E+00  0.00000E+00    0.16012E+03  0.73057E+02 -0.23318E+03 -0.93744E+01 -0.11115E+02  0.14593E+03      982.00
  0.38673E+00  0.44131E+03    0.22500E+00  0.22500E+00 -0.45000E+00  0.00000E+00  0.00000E+00  0.00000E+00    0.16076E+03  0.74420E+02 -0.23518E+03 -0.87439E+01 -0.10521E+02  0.14623E+03      982.00
  0.40671E+00  0.44242E+03    0.23750E+00  0.23750E+00 -0.47500E+00  0.00000E+00  0.00000E+00  0.00000E+00    0.16101E+03  0.75643E+02 -0.23666E+03 -0.81239E+01 -0.99246E+01  0.14579E+03      982.00
  0.42677E+00  0.43862E+03    0.25000E+00  0.25000E+00 -0.50000E+00  0.00000E+00  0.00000E+00  0.00000E+00    0.16021E+03  0.75684E+02 -0.23590E+03 -0.76154E+01 -0.93411E+01  0.14305E+03      982.00
  0.44694E+00  0.43478E+03    0.26250E+00  0.26250E+00 -0.52500E+00  0.00000E+00  0.00000E+00  0.00000E+00    0.15910E+03  0.76045E+02 -0.23515E+03 -0.71377E+01 -0.88069E+01  0.14031E+03      982.00
  0.46722E+00  0.43078E+03    0.27500E+00  0.27500E+00 -0.55000E+00  0.00000E+00  0.00000E+00  0.00000E+00    0.15787E+03  0.76497E+02 -0.23437E+03 -0.66810E+01 -0.83141E+01  0.13744E+03      982.00
  0.48763E+00  0.42662E+03    0.28750E+00  0.28750E+00 -0.57500E+00  0.00000E+00  0.00000E+00  0.00000E+00    0.15656E+03  0.77007E+02 -0.23356E+03 -0.62471E+01 -0.78618E+01  0.13443E+03      982.00
  0.50816E+00  0.42221E+03    0.30000E+00  0.30000E+00 -0.60000E+00  0.00000E+00  0.00000E+00  0.00000E+00    0.15510E+03  0.77593E+02 -0.23269E+03 -0.58439E+01 -0.74606E+01  0.13123E+03      982.00
  0.52882E+00  0.41781E+03    0.31250E+00  0.31250E+00 -0.62500E+00  0.00000E+00  0.00000E+00  0.00000E+00    0.15364E+03  0.78203E+02 -0.23185E+03 -0.54606E+01 -0.70941E+01  0.12795E+03      982.00
  0.54963E+00  0.41335E+03    0.32500E+00  0.32500E+00 -0.65000E+00  0.00000E+00  0.00000E+00  0.00000E+00    0.15214E+03  0.78860E+02 -0.23100E+03 -0.51051E+01 -0.67723E+01  0.12457E+03      982.00
  0.57059E+00  0.40885E+03    0.33750E+00  0.33750E+00 -0.67500E+00  0.00000E+00  0.00000E+00  0.00000E+00    0.15060E+03  0.79561E+02 -0.23016E+03 -0.47782E+01 -0.64960E+01  0.12109E+03      982.00
  0.59170E+00  0.40444E+03    0.35000E+00  0.35000E+00 -0.70000E+00  0.00000E+00  0.00000E+00  0.00000E+00    0.14906E+03  0.80306E+02 -0.22937E+03 -0.44803E+01 -0.62552E+01  0.11758E+03      982.00
  0.61297E+00  0.39980E+03    0.36250E+00  0.36250E+00 -0.72500E+00  0.00000E+00  0.00000E+00  0.00000E+00    0.14738E+03  0.81126E+02 -0.22850E+03 -0.42151E+01 -0.60932E+01  0.11388E+03      982.00
  0.63440E+00  0.39545E+03    0.37500E+00  0.37500E+00 -0.75000E+00  0.00000E+00  0.00000E+00  0.00000E+00    0.14581E+03  0.81953E+02 -0.22776E+03 -0.39730E+01 -0.59504E+01  0.11023E+03      982.00
  0.65600E+00  0.39124E+03    0.38750E+00  0.38750E+00 -0.77500E+00  0.00000E+00  0.00000E+00  0.00000E+00    0.14425E+03  0.82824E+02 -0.22707E+03 -0.37583E+01 -0.58498E+01  0.10658E+03      982.00
  0.67776E+00  0.38720E+03    0.40000E+00  0.40000E+00 -0.80000E+00  0.00000E+00  0.00000E+00  0.00000E+00    0.14272E+03  0.83734E+02 -0.22646E+03 -0.35696E+01 -0.57887E+01  0.10294E+03      982.00
  0.69969E+00  0.38336E+03    0.41250E+00  0.41250E+00 -0.82500E+00  0.00000E+00  0.00000E+00  0.00000E+00    0.14123E+03  0.84684E+02 -0.22592E+03 -0.34054E+01 -0.57644E+01  0.99325E+02      982.00
  0.72179E+00  0.37976E+03    0.42500E+00  0.42500E+00 -0.85000E+00  0.00000E+00  0.00000E+00  0.00000E+00    0.13980E+03  0.85672E+02 -0.22547E+03 -0.32640E+01 -0.57735E+01  0.95760E+02      982.00
  0.74406E+00  0.37642E+03    0.43750E+00  0.43750E+00 -0.87500E+00  0.00000E+00  0.00000E+00  0.00000E+00    0.13842E+03  0.86695E+02 -0.22511E+03 -0.31437E+01 -0.58124E+01  0.92258E+02      982.00
  0.76648E+00  0.37335E+03    0.45000E+00  0.45000E+00 -0.90000E+00  0.00000E+00  0.00000E+00  0.00000E+00    0.13710E+03  0.87753E+02 -0.22485E+03 -0.30424E+01 -0.58775E+01  0.88831E+02      982.00
  0.78907E+00  0.37037E+03    0.46250E+00  0.46250E+00 -0.92500E+00  0.00000E+00  0.00000E+00  0.00000E+00    0.13576E+03  0.88853E+02 -0.22461E+03 -0.29580E+01 -0.59980E+01  0.85406E+02      982.00
  0.81181E+00  0.36790E+03    0.47500E+00  0.47500E+00 -0.95000E+00  0.00000E+00  0.00000E+00  0.00000E+00    0.13460E+03  0.89965E+02 -0.22456E+03 -0.28890E+01 -0.60993E+01  0.82167E+02      982.00
  0.83470E+00  0.36572E+03    0.48750E+00  0.48750E+00 -0.97500E+00  0.00000E+00  0.00000E+00  0.00000E+00    0.13351E+03  0.91106E+02 -0.22462E+03 -0.28337E+01 -0.62158E+01  0.79029E+02      982.00
  0.85773E+00  0.36388E+03    0.50000E+00  0.50000E+00 -0.10000E+01  0.00000E+00  0.00000E+00  0.00000E+00    0.13255E+03  0.92263E+02 -0.22481E+03 -0.27886E+01 -0.63487E+01  0.76012E+02      982.00
