          Evm          Svm            E11          E22          E33          E23          E13          E12         SDEV11       SDEV22       SDEV33       SDEV23       SDEV13       SDEV12      TEMP
  0.00000E+00  0.17434E+03    0.00000E+00  0.00000E+00  0.00000E+00  0.00000E+00  0.00000E+00  0.00000E+00    0.52318E+02  0.61007E+02 -0.11333E+03 -0.96794E+01 -0.96795E+01  0.17125E+02      982.00
  0.24376E-01  0.17958E+03    0.12500E-01  0.12500E-01 -0.25000E-01  0.00000E+00  0.00000E+00  0.00000E+00    0.55783E+02  0.60541E+02 -0.11632E+03 -0.89941E+01 -0.95268E+01  0.20600E+02      982.00
  0.48666E-01  0.19161E+03    0.25000E-01  0.25000E-01 -0.50000E-01  0.00000E+00  0.00000E+00  0.00000E+00    0.63271E+02  0.60011E+02 -0.12328E+03 -0.85066E+01 -0.10249E+02  0.25679E+02      982.00
  0.72794E-01  0.19310E+03    0.37500E-01  0.37500E-01 -0.75000E-01  0.00000E+00  0.00000E+00  0.00000E+00    0.67050E+02  0.56935E+02 -0.12399E+03 -0.70265E+01 -0.99653E+01  0.26935E+02      982.00
  0.96872E-01  0.19496E+03    0.50000E-01  0.50000E-01 -0.10000E+00  0.00000E+00  0.00000E+00  0.00000E+00    0.69118E+02  0.55683E+02 -0.12480E+03 -0.56155E+01 -0.90697E+01  0.28806E+02      982.00
  0.12088E+00  0.20529E+03    0.62500E-01  0.62500E-01 -0.12500E+00  0.00000E+00  0.00000E+00  0.00000E+00    0.73505E+02  0.56817E+02 -0.13032E+03 -0.48909E+01 -0.83813E+01  0.33852E+02      982.00
  0.14468E+00  0.22369E+03    0.75000E-01  0.75000E-01 -0.15000E+00  0.00000E+00  0.00000E+00  0.00000E+00    0.80430E+02  0.59736E+02 -0.14017E+03 -0.46865E+01 -0.80709E+01  0.41837E+02      982.00
  0.16818E+00  0.24826E+03    0.87500E-01  0.87500E-01 -0.17500E+00  0.00000E+00  0.00000E+00  0.00000E+00    0.89385E+02  0.63775E+02 -0.15316E+03 -0.47660E+01 -0.80187E+01  0.51964E+02      982.00
  0.19131E+00  0.27486E+03    0.10000E+00  0.10000E+00 -0.20000E+00  0.00000E+00  0.00000E+00  0.00000E+00    0.99127E+02  0.68007E+02 -0.16713E+03 -0.49282E+01 -0.80187E+01  0.62467E+02      982.00
  0.21412E+00  0.29920E+03    0.11250E+00  0.11250E+00 -0.22500E+00  0.00000E+00  0.00000E+00  0.00000E+00    0.10826E+03  0.71713E+02 -0.17997E+03 -0.50620E+01 -0.79408E+01  0.71585E+02      982.00
  0.23667E+00  0.31919E+03    0.12500E+00  0.12500E+00 -0.25000E+00  0.00000E+00  0.00000E+00  0.00000E+00    0.11602E+03  0.74681E+02 -0.19070E+03 -0.51399E+01 -0.77698E+01  0.78556E+02      982.00
  0.25908E+00  0.33464E+03    0.13750E+00  0.13750E+00 -0.27500E+00  0.00000E+00  0.00000E+00  0.00000E+00    0.12229E+03  0.76982E+02 -0.19927E+03 -0.51805E+01 -0.75504E+01  0.83366E+02      982.00
  0.28141E+00  0.34614E+03    0.15000E+00  0.15000E+00 -0.30000E+00  0.00000E+00  0.00000E+00  0.00000E+00    0.12714E+03  0.78847E+02 -0.20599E+03 -0.52149E+01 -0.73169E+01  0.86320E+02      982.00
  0.30373E+00  0.35451E+03    0.16250E+00  0.16250E+00 -0.32500E+00  0.00000E+00  0.00000E+00  0.00000E+00    0.13081E+03  0.80440E+02 -0.21125E+03 -0.52576E+01 -0.70944E+01  0.87797E+02      982.00
  0.32607E+00  0.36042E+03    0.17500E+00  0.17500E+00 -0.35000E+00  0.00000E+00  0.00000E+00  0.00000E+00    0.13353E+03  0.81859E+02 -0.21539E+03 -0.53111E+01 -0.68947E+01  0.88110E+02      982.00
  0.34848E+00  0.36453E+03    0.18750E+00  0.18750E+00 -0.37500E+00  0.00000E+00  0.00000E+00  0.00000E+00    0.13553E+03  0.83186E+02 -0.21872E+03 -0.53919E+01 -0.67389E+01  0.87503E+02      982.00
  0.37098E+00  0.36722E+03    0.20000E+00  0.20000E+00 -0.40000E+00  0.00000E+00  0.00000E+00  0.00000E+00    0.13692E+03  0.84499E+02 -0.22142E+03 -0.55250E+01 -0.66515E+01  0.86124E+02      982.00
  0.39359E+00  0.36899E+03    0.21250E+00  0.21250E+00 -0.42500E+00  0.00000E+00  0.00000E+00  0.00000E+00    0.13787E+03  0.85859E+02 -0.22373E+03 -0.56839E+01 -0.66110E+01  0.84220E+02      982.00
  0.41633E+00  0.37022E+03    0.22500E+00  0.22500E+00 -0.45000E+00  0.00000E+00  0.00000E+00  0.00000E+00    0.13854E+03  0.87240E+02 -0.22578E+03 -0.58713E+01 -0.66228E+01  0.81967E+02      982.00
  0.43920E+00  0.37093E+03    0.23750E+00  0.23750E+00 -0.47500E+00  0.00000E+00  0.00000E+00  0.00000E+00    0.13899E+03  0.88615E+02 -0.22761E+03 -0.61015E+01 -0.67014E+01  0.79328E+02      982.00
  0.46221E+00  0.36899E+03    0.25000E+00  0.25000E+00 -0.50000E+00  0.00000E+00  0.00000E+00  0.00000E+00    0.13820E+03  0.89628E+02 -0.22783E+03 -0.62318E+01 -0.67493E+01  0.76026E+02      982.00
  0.48536E+00  0.36731E+03    0.26250E+00  0.26250E+00 -0.52500E+00  0.00000E+00  0.00000E+00  0.00000E+00    0.13755E+03  0.90600E+02 -0.22815E+03 -0.63839E+01 -0.68264E+01  0.72760E+02      982.00
  0.50866E+00  0.36588E+03    0.27500E+00  0.27500E+00 -0.55000E+00  0.00000E+00  0.00000E+00  0.00000E+00    0.13695E+03  0.91625E+02 -0.22857E+03 -0.65829E+01 -0.69498E+01  0.69529E+02      982.00
  0.53208E+00  0.36480E+03    0.28750E+00  0.28750E+00 -0.57500E+00  0.00000E+00  0.00000E+00  0.00000E+00    0.13646E+03  0.92658E+02 -0.22911E+03 -0.67574E+01 -0.70643E+01  0.66431E+02      982.00
  0.55564E+00  0.36400E+03    0.30000E+00  0.30000E+00 -0.60000E+00  0.00000E+00  0.00000E+00  0.00000E+00    0.13605E+03  0.93717E+02 -0.22977E+03 -0.69366E+01 -0.71906E+01  0.63426E+02      982.00
  0.57931E+00  0.36336E+03    0.31250E+00  0.31250E+00 -0.62500E+00  0.00000E+00  0.00000E+00  0.00000E+00    0.13566E+03  0.94801E+02 -0.23046E+03 -0.71081E+01 -0.73204E+01  0.60457E+02      982.00
  0.60309E+00  0.36313E+03    0.32500E+00  0.32500E+00 -0.65000E+00  0.00000E+00  0.00000E+00  0.00000E+00    0.13540E+03  0.95915E+02 -0.23132E+03 -0.72832E+01 -0.74557E+01  0.57664E+02      982.00
  0.62698E+00  0.36321E+03    0.33750E+00  0.33750E+00 -0.67500E+00  0.00000E+00  0.00000E+00  0.00000E+00    0.13524E+03  0.97064E+02 -0.23230E+03 -0.74760E+01 -0.76074E+01  0.54992E+02      982.00
  0.65096E+00  0.36343E+03    0.35000E+00  0.35000E+00 -0.70000E+00  0.00000E+00  0.00000E+00  0.00000E+00    0.13509E+03  0.98226E+02 -0.23331E+03 -0.76455E+01 -0.77493E+01  0.52365E+02      982.00
  0.67504E+00  0.36387E+03    0.36250E+00  0.36250E+00 -0.72500E+00  0.00000E+00  0.00000E+00  0.00000E+00    0.13501E+03  0.99385E+02 -0.23440E+03 -0.77609E+01 -0.78483E+01  0.49891E+02      982.00
  0.69919E+00  0.36462E+03    0.37500E+00  0.37500E+00 -0.75000E+00  0.00000E+00  0.00000E+00  0.00000E+00    0.13503E+03  0.10058E+03 -0.23561E+03 -0.78927E+01 -0.79619E+01  0.47539E+02      982.00
  0.72343E+00  0.36556E+03    0.38750E+00  0.38750E+00 -0.77500E+00  0.00000E+00  0.00000E+00  0.00000E+00    0.13511E+03  0.10178E+03 -0.23689E+03 -0.80110E+01 -0.80661E+01  0.45293E+02      982.00
  0.74773E+00  0.36669E+03    0.40000E+00  0.40000E+00 -0.80000E+00  0.00000E+00  0.00000E+00  0.00000E+00    0.13524E+03  0.10299E+03 -0.23823E+03 -0.81148E+01 -0.81596E+01  0.43151E+02      982.00
  0.77209E+00  0.36798E+03    0.41250E+00  0.41250E+00 -0.82500E+00  0.00000E+00  0.00000E+00  0.00000E+00    0.13542E+03  0.10422E+03 -0.23963E+03 -0.82042E+01 -0.82418E+01  0.41111E+02      982.00
  0.79651E+00  0.36938E+03    0.42500E+00  0.42500E+00 -0.85000E+00  0.00000E+00  0.00000E+00  0.00000E+00    0.13561E+03  0.10545E+03 -0.24107E+03 -0.83350E+01 -0.83519E+01  0.39105E+02      982.00
  0.82098E+00  0.37098E+03    0.43750E+00  0.43750E+00 -0.87500E+00  0.00000E+00  0.00000E+00  0.00000E+00    0.13589E+03  0.10669E+03 -0.24257E+03 -0.83900E+01 -0.84054E+01  0.37267E+02      982.00
  0.84550E+00  0.37269E+03    0.45000E+00  0.45000E+00 -0.90000E+00  0.00000E+00  0.00000E+00  0.00000E+00    0.13620E+03  0.10792E+03 -0.24412E+03 -0.84315E+01 -0.84477E+01  0.35521E+02      982.00
  0.87007E+00  0.37451E+03    0.46250E+00  0.46250E+00 -0.92500E+00  0.00000E+00  0.00000E+00  0.00000E+00    0.13655E+03  0.10915E+03 -0.24570E+03 -0.84610E+01 -0.84797E+01  0.33861E+02      982.00
  0.89467E+00  0.37641E+03    0.47500E+00  0.47500E+00 -0.95000E+00  0.00000E+00  0.00000E+00  0.00000E+00    0.13692E+03  0.11038E+03 -0.24730E+03 -0.84820E+01 -0.85056E+01  0.32277E+02      982.00
  0.91931E+00  0.37840E+03    0.48750E+00  0.48750E+00 -0.97500E+00  0.00000E+00  0.00000E+00  0.00000E+00    0.13732E+03  0.11160E+03 -0.24892E+03 -0.84893E+01 -0.85182E+01  0.30779E+02      982.00
  0.94397E+00  0.38049E+03    0.50000E+00  0.50000E+00 -0.10000E+01  0.00000E+00  0.00000E+00  0.00000E+00    0.13776E+03  0.11283E+03 -0.25059E+03 -0.85275E+01 -0.85475E+01  0.29325E+02      982.00
