          Evm          Svm            E11          E22          E33          E23          E13          E12         SDEV11       SDEV22       SDEV33       SDEV23       SDEV13       SDEV12      TEMP
  0.00000E+00  0.26132E+03    0.00000E+00  0.00000E+00  0.00000E+00  0.00000E+00  0.00000E+00  0.00000E+00    0.87038E+02  0.87099E+02 -0.17414E+03 -0.15074E+01  0.19013E+01 -0.38233E+01      982.00
  0.24989E-01  0.24482E+03    0.12500E-01  0.12500E-01 -0.25000E-01  0.00000E+00  0.00000E+00  0.00000E+00    0.81487E+02  0.81703E+02 -0.16319E+03 -0.20429E+01  0.48861E+00 -0.13881E+01      982.00
  0.49985E-01  0.23717E+03    0.25000E-01  0.25000E-01 -0.50000E-01  0.00000E+00  0.00000E+00  0.00000E+00    0.79125E+02  0.78979E+02 -0.15810E+03 -0.15611E+01  0.14483E+00 -0.30477E+00      982.00
  0.74983E-01  0.23782E+03    0.37500E-01  0.37500E-01 -0.75000E-01  0.00000E+00  0.00000E+00  0.00000E+00    0.79543E+02  0.78999E+02 -0.15854E+03 -0.89373E+00  0.20937E+00  0.21571E+00      982.00
  0.99982E-01  0.24980E+03    0.50000E-01  0.50000E-01 -0.10000E+00  0.00000E+00  0.00000E+00  0.00000E+00    0.83712E+02  0.82817E+02 -0.16653E+03 -0.26179E+00  0.43172E+00  0.34099E+00      982.00
  0.12498E+00  0.27430E+03    0.62500E-01  0.62500E-01 -0.12500E+00  0.00000E+00  0.00000E+00  0.00000E+00    0.92052E+02  0.90808E+02 -0.18286E+03  0.36411E+00  0.79098E+00 -0.14226E-01      982.00
  0.14998E+00  0.30504E+03    0.75000E-01  0.75000E-01 -0.15000E+00  0.00000E+00  0.00000E+00  0.00000E+00    0.10252E+03  0.10083E+03 -0.20335E+03  0.97492E+00  0.12392E+01 -0.79148E+00      982.00
  0.17498E+00  0.34388E+03    0.87500E-01  0.87500E-01 -0.17500E+00  0.00000E+00  0.00000E+00  0.00000E+00    0.11590E+03  0.11331E+03 -0.22921E+03  0.17204E+01  0.19270E+01 -0.21383E+01      982.00
  0.19998E+00  0.37944E+03    0.10000E+00  0.10000E+00 -0.20000E+00  0.00000E+00  0.00000E+00  0.00000E+00    0.12850E+03  0.12438E+03 -0.25289E+03  0.24302E+01  0.26638E+01 -0.33590E+01      982.00
  0.22497E+00  0.41520E+03    0.11250E+00  0.11250E+00 -0.22500E+00  0.00000E+00  0.00000E+00  0.00000E+00    0.14131E+03  0.13536E+03 -0.27667E+03  0.32692E+01  0.35676E+01 -0.46576E+01      982.00
  0.24996E+00  0.44554E+03    0.12500E+00  0.12500E+00 -0.25000E+00  0.00000E+00  0.00000E+00  0.00000E+00    0.15246E+03  0.14437E+03 -0.29683E+03  0.40309E+01  0.44495E+01 -0.56463E+01      982.00
  0.27494E+00  0.47230E+03    0.13750E+00  0.13750E+00 -0.27500E+00  0.00000E+00  0.00000E+00  0.00000E+00    0.16225E+03  0.15237E+03 -0.31462E+03  0.47959E+01  0.53458E+01 -0.65628E+01      982.00
  0.29992E+00  0.49473E+03    0.15000E+00  0.15000E+00 -0.30000E+00  0.00000E+00  0.00000E+00  0.00000E+00    0.17046E+03  0.15905E+03 -0.32951E+03  0.54904E+01  0.61881E+01 -0.73541E+01      982.00
  0.32490E+00  0.51353E+03    0.16250E+00  0.16250E+00 -0.32500E+00  0.00000E+00  0.00000E+00  0.00000E+00    0.17727E+03  0.16471E+03 -0.34198E+03  0.61103E+01  0.69598E+01 -0.80622E+01      982.00
  0.34987E+00  0.52882E+03    0.17500E+00  0.17500E+00 -0.35000E+00  0.00000E+00  0.00000E+00  0.00000E+00    0.18281E+03  0.16932E+03 -0.35213E+03  0.66322E+01  0.76405E+01 -0.86851E+01      982.00
  0.37484E+00  0.54130E+03    0.18750E+00  0.18750E+00 -0.37500E+00  0.00000E+00  0.00000E+00  0.00000E+00    0.18730E+03  0.17310E+03 -0.36040E+03  0.70609E+01  0.82311E+01 -0.92317E+01      982.00
  0.39981E+00  0.55189E+03    0.20000E+00  0.20000E+00 -0.40000E+00  0.00000E+00  0.00000E+00  0.00000E+00    0.19118E+03  0.17624E+03 -0.36742E+03  0.74081E+01  0.87469E+01 -0.97397E+01      982.00
  0.42477E+00  0.56027E+03    0.21250E+00  0.21250E+00 -0.42500E+00  0.00000E+00  0.00000E+00  0.00000E+00    0.19415E+03  0.17882E+03 -0.37296E+03  0.76908E+01  0.91926E+01 -0.10154E+02      982.00
  0.44974E+00  0.55969E+03    0.22500E+00  0.22500E+00 -0.45000E+00  0.00000E+00  0.00000E+00  0.00000E+00    0.19402E+03  0.17857E+03 -0.37259E+03  0.75079E+01  0.90732E+01 -0.10280E+02      982.00
  0.47470E+00  0.55946E+03    0.23750E+00  0.23750E+00 -0.47500E+00  0.00000E+00  0.00000E+00  0.00000E+00    0.19400E+03  0.17843E+03 -0.37243E+03  0.73449E+01  0.89539E+01 -0.10400E+02      982.00
  0.49966E+00  0.55926E+03    0.25000E+00  0.25000E+00 -0.50000E+00  0.00000E+00  0.00000E+00  0.00000E+00    0.19404E+03  0.17825E+03 -0.37229E+03  0.72305E+01  0.88849E+01 -0.10523E+02      982.00
  0.52463E+00  0.55898E+03    0.26250E+00  0.26250E+00 -0.52500E+00  0.00000E+00  0.00000E+00  0.00000E+00    0.19403E+03  0.17807E+03 -0.37211E+03  0.71141E+01  0.88171E+01 -0.10618E+02      982.00
  0.54959E+00  0.55866E+03    0.27500E+00  0.27500E+00 -0.55000E+00  0.00000E+00  0.00000E+00  0.00000E+00    0.19399E+03  0.17790E+03 -0.37189E+03  0.70280E+01  0.87722E+01 -0.10693E+02      982.00
  0.57455E+00  0.55826E+03    0.28750E+00  0.28750E+00 -0.57500E+00  0.00000E+00  0.00000E+00  0.00000E+00    0.19386E+03  0.17777E+03 -0.37163E+03  0.69282E+01  0.87043E+01 -0.10719E+02      982.00
  0.59952E+00  0.55777E+03    0.30000E+00  0.30000E+00 -0.60000E+00  0.00000E+00  0.00000E+00  0.00000E+00    0.19367E+03  0.17763E+03 -0.37131E+03  0.68359E+01  0.86312E+01 -0.10729E+02      982.00
  0.62448E+00  0.55723E+03    0.31250E+00  0.31250E+00 -0.62500E+00  0.00000E+00  0.00000E+00  0.00000E+00    0.19347E+03  0.17749E+03 -0.37095E+03  0.67551E+01  0.85756E+01 -0.10720E+02      982.00
  0.64944E+00  0.55663E+03    0.32500E+00  0.32500E+00 -0.65000E+00  0.00000E+00  0.00000E+00  0.00000E+00    0.19324E+03  0.17731E+03 -0.37056E+03  0.66768E+01  0.85217E+01 -0.10702E+02      982.00
  0.67441E+00  0.55618E+03    0.33750E+00  0.33750E+00 -0.67500E+00  0.00000E+00  0.00000E+00  0.00000E+00    0.19309E+03  0.17717E+03 -0.37026E+03  0.65985E+01  0.84778E+01 -0.10698E+02      982.00
  0.69937E+00  0.55546E+03    0.35000E+00  0.35000E+00 -0.70000E+00  0.00000E+00  0.00000E+00  0.00000E+00    0.19285E+03  0.17694E+03 -0.36978E+03  0.65255E+01  0.84256E+01 -0.10674E+02      982.00
  0.72434E+00  0.55468E+03    0.36250E+00  0.36250E+00 -0.72500E+00  0.00000E+00  0.00000E+00  0.00000E+00    0.19260E+03  0.17667E+03 -0.36927E+03  0.64543E+01  0.83739E+01 -0.10646E+02      982.00
  0.74930E+00  0.55397E+03    0.37500E+00  0.37500E+00 -0.75000E+00  0.00000E+00  0.00000E+00  0.00000E+00    0.19238E+03  0.17642E+03 -0.36880E+03  0.63872E+01  0.83212E+01 -0.10618E+02      982.00
  0.77427E+00  0.55310E+03    0.38750E+00  0.38750E+00 -0.77500E+00  0.00000E+00  0.00000E+00  0.00000E+00    0.19211E+03  0.17610E+03 -0.36822E+03  0.63172E+01  0.82682E+01 -0.10580E+02      982.00
  0.79923E+00  0.55217E+03    0.40000E+00  0.40000E+00 -0.80000E+00  0.00000E+00  0.00000E+00  0.00000E+00    0.19184E+03  0.17576E+03 -0.36760E+03  0.62484E+01  0.82145E+01 -0.10535E+02      982.00
  0.82420E+00  0.55119E+03    0.41250E+00  0.41250E+00 -0.82500E+00  0.00000E+00  0.00000E+00  0.00000E+00    0.19155E+03  0.17541E+03 -0.36695E+03  0.61808E+01  0.81602E+01 -0.10485E+02      982.00
  0.84916E+00  0.55017E+03    0.42500E+00  0.42500E+00 -0.85000E+00  0.00000E+00  0.00000E+00  0.00000E+00    0.19125E+03  0.17503E+03 -0.36628E+03  0.61143E+01  0.81052E+01 -0.10430E+02      982.00
  0.87413E+00  0.54911E+03    0.43750E+00  0.43750E+00 -0.87500E+00  0.00000E+00  0.00000E+00  0.00000E+00    0.19094E+03  0.17463E+03 -0.36557E+03  0.60486E+01  0.80494E+01 -0.10370E+02      982.00
  0.89910E+00  0.54802E+03    0.45000E+00  0.45000E+00 -0.90000E+00  0.00000E+00  0.00000E+00  0.00000E+00    0.19063E+03  0.17422E+03 -0.36485E+03  0.59836E+01  0.79929E+01 -0.10305E+02      982.00
  0.92406E+00  0.54689E+03    0.46250E+00  0.46250E+00 -0.92500E+00  0.00000E+00  0.00000E+00  0.00000E+00    0.19030E+03  0.17380E+03 -0.36410E+03  0.59193E+01  0.79356E+01 -0.10236E+02      982.00
  0.94903E+00  0.54573E+03    0.47500E+00  0.47500E+00 -0.95000E+00  0.00000E+00  0.00000E+00  0.00000E+00    0.18997E+03  0.17336E+03 -0.36333E+03  0.58555E+01  0.78776E+01 -0.10164E+02      982.00
  0.97399E+00  0.54454E+03    0.48750E+00  0.48750E+00 -0.97500E+00  0.00000E+00  0.00000E+00  0.00000E+00    0.18963E+03  0.17291E+03 -0.36254E+03  0.57921E+01  0.78188E+01 -0.10087E+02      982.00
  0.99896E+00  0.54333E+03    0.50000E+00  0.50000E+00 -0.10000E+01  0.00000E+00  0.00000E+00  0.00000E+00    0.18928E+03  0.17245E+03 -0.36174E+03  0.57291E+01  0.77593E+01 -0.10008E+02      982.00
