          Evm          Svm            E11          E22          E33          E23          E13          E12         SDEV11       SDEV22       SDEV33       SDEV23       SDEV13       SDEV12      TEMP
  0.00000E+00  0.17110E+03    0.00000E+00  0.00000E+00  0.00000E+00  0.00000E+00  0.00000E+00  0.00000E+00    0.49570E+02  0.55866E+02 -0.10544E+03 -0.11959E+02 -0.10653E+02  0.33982E+02      982.00
  0.23108E-01  0.17248E+03    0.12500E-01  0.12500E-01 -0.25000E-01  0.00000E+00  0.00000E+00  0.00000E+00    0.49685E+02  0.56089E+02 -0.10577E+03 -0.96832E+01 -0.88830E+01  0.36639E+02      982.00
  0.46105E-01  0.16743E+03    0.25000E-01  0.25000E-01 -0.50000E-01  0.00000E+00  0.00000E+00  0.00000E+00    0.49698E+02  0.53275E+02 -0.10297E+03 -0.73361E+01 -0.66206E+01  0.35928E+02      982.00
  0.69168E-01  0.16965E+03    0.37500E-01  0.37500E-01 -0.75000E-01  0.00000E+00  0.00000E+00  0.00000E+00    0.51092E+02  0.52404E+02 -0.10350E+03 -0.62338E+01 -0.55304E+01  0.38603E+02      982.00
  0.92045E-01  0.18216E+03    0.50000E-01  0.50000E-01 -0.10000E+00  0.00000E+00  0.00000E+00  0.00000E+00    0.54380E+02  0.54281E+02 -0.10866E+03 -0.60328E+01 -0.53781E+01  0.46260E+02      982.00
  0.11441E+00  0.20515E+03    0.62500E-01  0.62500E-01 -0.12500E+00  0.00000E+00  0.00000E+00  0.00000E+00    0.59657E+02  0.58525E+02 -0.11818E+03 -0.64003E+01 -0.58265E+01  0.58980E+02      982.00
  0.13602E+00  0.24020E+03    0.75000E-01  0.75000E-01 -0.15000E+00  0.00000E+00  0.00000E+00  0.00000E+00    0.67189E+02  0.65112E+02 -0.13230E+03 -0.71892E+01 -0.67251E+01  0.77503E+02      982.00
  0.15667E+00  0.28733E+03    0.87500E-01  0.87500E-01 -0.17500E+00  0.00000E+00  0.00000E+00  0.00000E+00    0.76884E+02  0.73837E+02 -0.15072E+03 -0.82656E+01 -0.79484E+01  0.10172E+03      982.00
  0.17634E+00  0.34016E+03    0.10000E+00  0.10000E+00 -0.20000E+00  0.00000E+00  0.00000E+00  0.00000E+00    0.87447E+02  0.83472E+02 -0.17092E+03 -0.93475E+01 -0.92345E+01  0.12838E+03      982.00
  0.19519E+00  0.38817E+03    0.11250E+00  0.11250E+00 -0.22500E+00  0.00000E+00  0.00000E+00  0.00000E+00    0.96867E+02  0.92209E+02 -0.18908E+03 -0.10157E+02 -0.10304E+02  0.15231E+03      982.00
  0.21345E+00  0.42629E+03    0.12500E+00  0.12500E+00 -0.25000E+00  0.00000E+00  0.00000E+00  0.00000E+00    0.10423E+03  0.99228E+02 -0.20346E+03 -0.10665E+02 -0.11094E+02  0.17113E+03      982.00
  0.23135E+00  0.45519E+03    0.13750E+00  0.13750E+00 -0.27500E+00  0.00000E+00  0.00000E+00  0.00000E+00    0.10972E+03  0.10464E+03 -0.21436E+03 -0.10957E+02 -0.11660E+02  0.18532E+03      982.00
  0.24901E+00  0.47720E+03    0.15000E+00  0.15000E+00 -0.30000E+00  0.00000E+00  0.00000E+00  0.00000E+00    0.11381E+03  0.10881E+03 -0.22262E+03 -0.11109E+02 -0.12066E+02  0.19612E+03      982.00
  0.26650E+00  0.49447E+03    0.16250E+00  0.16250E+00 -0.32500E+00  0.00000E+00  0.00000E+00  0.00000E+00    0.11696E+03  0.11209E+03 -0.22906E+03 -0.11171E+02 -0.12358E+02  0.20462E+03      982.00
  0.28387E+00  0.50765E+03    0.17500E+00  0.17500E+00 -0.35000E+00  0.00000E+00  0.00000E+00  0.00000E+00    0.11932E+03  0.11459E+03 -0.23391E+03 -0.11188E+02 -0.12569E+02  0.21114E+03      982.00
  0.30115E+00  0.51846E+03    0.18750E+00  0.18750E+00 -0.37500E+00  0.00000E+00  0.00000E+00  0.00000E+00    0.12120E+03  0.11660E+03 -0.23779E+03 -0.11147E+02 -0.12704E+02  0.21656E+03      982.00
  0.31835E+00  0.52755E+03    0.20000E+00  0.20000E+00 -0.40000E+00  0.00000E+00  0.00000E+00  0.00000E+00    0.12271E+03  0.11825E+03 -0.24096E+03 -0.11053E+02 -0.12773E+02  0.22120E+03      982.00
  0.33548E+00  0.53451E+03    0.21250E+00  0.21250E+00 -0.42500E+00  0.00000E+00  0.00000E+00  0.00000E+00    0.12384E+03  0.11949E+03 -0.24333E+03 -0.10958E+02 -0.12806E+02  0.22481E+03      982.00
  0.35255E+00  0.54040E+03    0.22500E+00  0.22500E+00 -0.45000E+00  0.00000E+00  0.00000E+00  0.00000E+00    0.12480E+03  0.12046E+03 -0.24526E+03 -0.10852E+02 -0.12806E+02  0.22791E+03      982.00
  0.36957E+00  0.54629E+03    0.23750E+00  0.23750E+00 -0.47500E+00  0.00000E+00  0.00000E+00  0.00000E+00    0.12565E+03  0.12145E+03 -0.24709E+03 -0.10659E+02 -0.12737E+02  0.23110E+03      982.00
  0.38653E+00  0.55083E+03    0.25000E+00  0.25000E+00 -0.50000E+00  0.00000E+00  0.00000E+00  0.00000E+00    0.12626E+03  0.12218E+03 -0.24845E+03 -0.10481E+02 -0.12651E+02  0.23360E+03      982.00
  0.40345E+00  0.55481E+03    0.26250E+00  0.26250E+00 -0.52500E+00  0.00000E+00  0.00000E+00  0.00000E+00    0.12678E+03  0.12279E+03 -0.24957E+03 -0.10282E+02 -0.12530E+02  0.23585E+03      982.00
  0.42032E+00  0.55834E+03    0.27500E+00  0.27500E+00 -0.55000E+00  0.00000E+00  0.00000E+00  0.00000E+00    0.12722E+03  0.12330E+03 -0.25052E+03 -0.10064E+02 -0.12380E+02  0.23788E+03      982.00
  0.43714E+00  0.56149E+03    0.28750E+00  0.28750E+00 -0.57500E+00  0.00000E+00  0.00000E+00  0.00000E+00    0.12760E+03  0.12373E+03 -0.25132E+03 -0.98310E+01 -0.12203E+02  0.23973E+03      982.00
  0.45393E+00  0.56253E+03    0.30000E+00  0.30000E+00 -0.60000E+00  0.00000E+00  0.00000E+00  0.00000E+00    0.12770E+03  0.12358E+03 -0.25129E+03 -0.95284E+01 -0.11905E+02  0.24059E+03      982.00
  0.47068E+00  0.56316E+03    0.31250E+00  0.31250E+00 -0.62500E+00  0.00000E+00  0.00000E+00  0.00000E+00    0.12765E+03  0.12347E+03 -0.25112E+03 -0.92493E+01 -0.11628E+02  0.24124E+03      982.00
  0.48740E+00  0.56369E+03    0.32500E+00  0.32500E+00 -0.65000E+00  0.00000E+00  0.00000E+00  0.00000E+00    0.12760E+03  0.12334E+03 -0.25094E+03 -0.89743E+01 -0.11350E+02  0.24181E+03      982.00
  0.50409E+00  0.56419E+03    0.33750E+00  0.33750E+00 -0.67500E+00  0.00000E+00  0.00000E+00  0.00000E+00    0.12756E+03  0.12321E+03 -0.25077E+03 -0.87047E+01 -0.11072E+02  0.24235E+03      982.00
  0.52076E+00  0.56465E+03    0.35000E+00  0.35000E+00 -0.70000E+00  0.00000E+00  0.00000E+00  0.00000E+00    0.12754E+03  0.12308E+03 -0.25062E+03 -0.84411E+01 -0.10797E+02  0.24285E+03      982.00
  0.53741E+00  0.56508E+03    0.36250E+00  0.36250E+00 -0.72500E+00  0.00000E+00  0.00000E+00  0.00000E+00    0.12752E+03  0.12295E+03 -0.25047E+03 -0.81843E+01 -0.10525E+02  0.24332E+03      982.00
  0.55403E+00  0.56562E+03    0.37500E+00  0.37500E+00 -0.75000E+00  0.00000E+00  0.00000E+00  0.00000E+00    0.12758E+03  0.12280E+03 -0.25038E+03 -0.78440E+01 -0.10161E+02  0.24384E+03      982.00
  0.57063E+00  0.56598E+03    0.38750E+00  0.38750E+00 -0.77500E+00  0.00000E+00  0.00000E+00  0.00000E+00    0.12758E+03  0.12267E+03 -0.25025E+03 -0.76055E+01 -0.99019E+01  0.24423E+03      982.00
  0.58721E+00  0.56633E+03    0.40000E+00  0.40000E+00 -0.80000E+00  0.00000E+00  0.00000E+00  0.00000E+00    0.12762E+03  0.12251E+03 -0.25014E+03 -0.73878E+01 -0.96611E+01  0.24460E+03      982.00
  0.60377E+00  0.56661E+03    0.41250E+00  0.41250E+00 -0.82500E+00  0.00000E+00  0.00000E+00  0.00000E+00    0.12765E+03  0.12237E+03 -0.25002E+03 -0.71650E+01 -0.94141E+01  0.24492E+03      982.00
  0.62032E+00  0.56687E+03    0.42500E+00  0.42500E+00 -0.85000E+00  0.00000E+00  0.00000E+00  0.00000E+00    0.12769E+03  0.12223E+03 -0.24992E+03 -0.69485E+01 -0.91728E+01  0.24521E+03      982.00
  0.63685E+00  0.56707E+03    0.43750E+00  0.43750E+00 -0.87500E+00  0.00000E+00  0.00000E+00  0.00000E+00    0.12773E+03  0.12211E+03 -0.24984E+03 -0.67618E+01 -0.89678E+01  0.24544E+03      982.00
  0.65337E+00  0.56728E+03    0.45000E+00  0.45000E+00 -0.90000E+00  0.00000E+00  0.00000E+00  0.00000E+00    0.12777E+03  0.12198E+03 -0.24974E+03 -0.65588E+01 -0.87391E+01  0.24569E+03      982.00
  0.66988E+00  0.56748E+03    0.46250E+00  0.46250E+00 -0.92500E+00  0.00000E+00  0.00000E+00  0.00000E+00    0.12781E+03  0.12185E+03 -0.24966E+03 -0.63611E+01 -0.85155E+01  0.24592E+03      982.00
  0.68638E+00  0.56766E+03    0.47500E+00  0.47500E+00 -0.95000E+00  0.00000E+00  0.00000E+00  0.00000E+00    0.12786E+03  0.12172E+03 -0.24958E+03 -0.61695E+01 -0.82979E+01  0.24613E+03      982.00
  0.70287E+00  0.56783E+03    0.48750E+00  0.48750E+00 -0.97500E+00  0.00000E+00  0.00000E+00  0.00000E+00    0.12792E+03  0.12160E+03 -0.24951E+03 -0.59837E+01 -0.80863E+01  0.24632E+03      982.00
  0.71935E+00  0.56798E+03    0.50000E+00  0.50000E+00 -0.10000E+01  0.00000E+00  0.00000E+00  0.00000E+00    0.12798E+03  0.12147E+03 -0.24945E+03 -0.58034E+01 -0.78804E+01  0.24649E+03      982.00
