          Evm          Svm            E11          E22          E33          E23          E13          E12         SDEV11       SDEV22       SDEV33       SDEV23       SDEV13       SDEV12      TEMP
  0.00000E+00  0.20887E+03    0.00000E+00  0.00000E+00  0.00000E+00  0.00000E+00  0.00000E+00  0.00000E+00    0.66555E+02  0.68926E+02 -0.13548E+03 -0.12409E+02 -0.11665E+02  0.22011E+02      982.00
  0.24324E-01  0.20149E+03    0.12500E-01  0.12500E-01 -0.25000E-01  0.00000E+00  0.00000E+00  0.00000E+00    0.65184E+02  0.65726E+02 -0.13091E+03 -0.10406E+02 -0.99038E+01  0.21761E+02      982.00
  0.48688E-01  0.18767E+03    0.25000E-01  0.25000E-01 -0.50000E-01  0.00000E+00  0.00000E+00  0.00000E+00    0.61336E+02  0.61108E+02 -0.12244E+03 -0.77513E+01 -0.76390E+01  0.19422E+02      982.00
  0.73154E-01  0.18500E+03    0.37500E-01  0.37500E-01 -0.75000E-01  0.00000E+00  0.00000E+00  0.00000E+00    0.60670E+02  0.60017E+02 -0.12069E+03 -0.61582E+01 -0.61859E+01  0.20205E+02      982.00
  0.97618E-01  0.19031E+03    0.50000E-01  0.50000E-01 -0.10000E+00  0.00000E+00  0.00000E+00  0.00000E+00    0.62339E+02  0.61354E+02 -0.12369E+03 -0.53205E+01 -0.53628E+01  0.23241E+02      982.00
  0.12199E+00  0.20254E+03    0.62500E-01  0.62500E-01 -0.12500E+00  0.00000E+00  0.00000E+00  0.00000E+00    0.65998E+02  0.64711E+02 -0.13071E+03 -0.49938E+01 -0.50172E+01  0.28455E+02      982.00
  0.14619E+00  0.22113E+03    0.75000E-01  0.75000E-01 -0.15000E+00  0.00000E+00  0.00000E+00  0.00000E+00    0.71430E+02  0.69852E+02 -0.14128E+03 -0.50016E+01 -0.50055E+01  0.35756E+02      982.00
  0.17015E+00  0.24420E+03    0.87500E-01  0.87500E-01 -0.17500E+00  0.00000E+00  0.00000E+00  0.00000E+00    0.78053E+02  0.76222E+02 -0.15428E+03 -0.51846E+01 -0.51762E+01  0.44412E+02      982.00
  0.19384E+00  0.26825E+03    0.10000E+00  0.10000E+00 -0.20000E+00  0.00000E+00  0.00000E+00  0.00000E+00    0.84884E+02  0.82902E+02 -0.16779E+03 -0.53980E+01 -0.53842E+01  0.53033E+02      982.00
  0.21730E+00  0.28988E+03    0.11250E+00  0.11250E+00 -0.22500E+00  0.00000E+00  0.00000E+00  0.00000E+00    0.91036E+02  0.89023E+02 -0.18006E+03 -0.55803E+01 -0.55656E+01  0.60254E+02      982.00
  0.24059E+00  0.30759E+03    0.12500E+00  0.12500E+00 -0.25000E+00  0.00000E+00  0.00000E+00  0.00000E+00    0.96142E+02  0.94185E+02 -0.19033E+03 -0.57182E+01 -0.57067E+01  0.65595E+02      982.00
  0.26380E+00  0.32131E+03    0.13750E+00  0.13750E+00 -0.27500E+00  0.00000E+00  0.00000E+00  0.00000E+00    0.10023E+03  0.98364E+02 -0.19860E+03 -0.58540E+01 -0.58495E+01  0.69008E+02      982.00
  0.28697E+00  0.33197E+03    0.15000E+00  0.15000E+00 -0.30000E+00  0.00000E+00  0.00000E+00  0.00000E+00    0.10352E+03  0.10178E+03 -0.20530E+03 -0.59534E+01 -0.59595E+01  0.71083E+02      982.00
  0.31016E+00  0.33986E+03    0.16250E+00  0.16250E+00 -0.32500E+00  0.00000E+00  0.00000E+00  0.00000E+00    0.10613E+03  0.10451E+03 -0.21064E+03 -0.61032E+01 -0.61216E+01  0.71769E+02      982.00
  0.33341E+00  0.34633E+03    0.17500E+00  0.17500E+00 -0.35000E+00  0.00000E+00  0.00000E+00  0.00000E+00    0.10839E+03  0.10692E+03 -0.21531E+03 -0.63252E+01 -0.63534E+01  0.71630E+02      982.00
  0.35672E+00  0.35065E+03    0.18750E+00  0.18750E+00 -0.37500E+00  0.00000E+00  0.00000E+00  0.00000E+00    0.11011E+03  0.10876E+03 -0.21887E+03 -0.65255E+01 -0.65721E+01  0.70496E+02      982.00
  0.38013E+00  0.35432E+03    0.20000E+00  0.20000E+00 -0.40000E+00  0.00000E+00  0.00000E+00  0.00000E+00    0.11167E+03  0.11042E+03 -0.22209E+03 -0.67131E+01 -0.67824E+01  0.69028E+02      982.00
  0.40363E+00  0.35739E+03    0.21250E+00  0.21250E+00 -0.42500E+00  0.00000E+00  0.00000E+00  0.00000E+00    0.11306E+03  0.11195E+03 -0.22501E+03 -0.69773E+01 -0.70669E+01  0.67105E+02      982.00
  0.42724E+00  0.36005E+03    0.22500E+00  0.22500E+00 -0.45000E+00  0.00000E+00  0.00000E+00  0.00000E+00    0.11435E+03  0.11338E+03 -0.22773E+03 -0.72781E+01 -0.73890E+01  0.64864E+02      982.00
  0.45096E+00  0.36248E+03    0.23750E+00  0.23750E+00 -0.47500E+00  0.00000E+00  0.00000E+00  0.00000E+00    0.11558E+03  0.11475E+03 -0.23033E+03 -0.76165E+01 -0.77499E+01  0.62378E+02      982.00
  0.47479E+00  0.36242E+03    0.25000E+00  0.25000E+00 -0.50000E+00  0.00000E+00  0.00000E+00  0.00000E+00    0.11602E+03  0.11529E+03 -0.23131E+03 -0.78133E+01 -0.79562E+01  0.59425E+02      982.00
  0.49872E+00  0.36253E+03    0.26250E+00  0.26250E+00 -0.52500E+00  0.00000E+00  0.00000E+00  0.00000E+00    0.11647E+03  0.11585E+03 -0.23232E+03 -0.79601E+01 -0.81142E+01  0.56580E+02      982.00
  0.52275E+00  0.36297E+03    0.27500E+00  0.27500E+00 -0.55000E+00  0.00000E+00  0.00000E+00  0.00000E+00    0.11699E+03  0.11648E+03 -0.23347E+03 -0.81297E+01 -0.82932E+01  0.53850E+02      982.00
  0.54687E+00  0.36367E+03    0.28750E+00  0.28750E+00 -0.57500E+00  0.00000E+00  0.00000E+00  0.00000E+00    0.11758E+03  0.11715E+03 -0.23473E+03 -0.83349E+01 -0.85050E+01  0.51180E+02      982.00
  0.57108E+00  0.36461E+03    0.30000E+00  0.30000E+00 -0.60000E+00  0.00000E+00  0.00000E+00  0.00000E+00    0.11821E+03  0.11787E+03 -0.23607E+03 -0.84790E+01 -0.86576E+01  0.48667E+02      982.00
  0.59536E+00  0.36571E+03    0.31250E+00  0.31250E+00 -0.62500E+00  0.00000E+00  0.00000E+00  0.00000E+00    0.11887E+03  0.11860E+03 -0.23746E+03 -0.85879E+01 -0.87754E+01  0.46250E+02      982.00
  0.61971E+00  0.36709E+03    0.32500E+00  0.32500E+00 -0.65000E+00  0.00000E+00  0.00000E+00  0.00000E+00    0.11959E+03  0.11939E+03 -0.23897E+03 -0.87137E+01 -0.89080E+01  0.43949E+02      982.00
  0.64412E+00  0.36865E+03    0.33750E+00  0.33750E+00 -0.67500E+00  0.00000E+00  0.00000E+00  0.00000E+00    0.12034E+03  0.12021E+03 -0.24055E+03 -0.88250E+01 -0.90256E+01  0.41753E+02      982.00
  0.66859E+00  0.37039E+03    0.35000E+00  0.35000E+00 -0.70000E+00  0.00000E+00  0.00000E+00  0.00000E+00    0.12114E+03  0.12106E+03 -0.24219E+03 -0.89210E+01 -0.91274E+01  0.39660E+02      982.00
  0.69311E+00  0.37225E+03    0.36250E+00  0.36250E+00 -0.72500E+00  0.00000E+00  0.00000E+00  0.00000E+00    0.12196E+03  0.12192E+03 -0.24389E+03 -0.90579E+01 -0.92658E+01  0.37591E+02      982.00
  0.71768E+00  0.37429E+03    0.37500E+00  0.37500E+00 -0.75000E+00  0.00000E+00  0.00000E+00  0.00000E+00    0.12281E+03  0.12282E+03 -0.24564E+03 -0.91162E+01 -0.93295E+01  0.35706E+02      982.00
  0.74229E+00  0.37644E+03    0.38750E+00  0.38750E+00 -0.77500E+00  0.00000E+00  0.00000E+00  0.00000E+00    0.12369E+03  0.12374E+03 -0.24742E+03 -0.91595E+01 -0.93777E+01  0.33916E+02      982.00
  0.76694E+00  0.37869E+03    0.40000E+00  0.40000E+00 -0.80000E+00  0.00000E+00  0.00000E+00  0.00000E+00    0.12458E+03  0.12466E+03 -0.24924E+03 -0.91894E+01 -0.94120E+01  0.32215E+02      982.00
  0.79162E+00  0.38102E+03    0.41250E+00  0.41250E+00 -0.82500E+00  0.00000E+00  0.00000E+00  0.00000E+00    0.12548E+03  0.12560E+03 -0.25108E+03 -0.92064E+01 -0.94331E+01  0.30601E+02      982.00
  0.81633E+00  0.38350E+03    0.42500E+00  0.42500E+00 -0.85000E+00  0.00000E+00  0.00000E+00  0.00000E+00    0.12643E+03  0.12657E+03 -0.25300E+03 -0.92525E+01 -0.94811E+01  0.29026E+02      982.00
  0.84107E+00  0.38593E+03    0.43750E+00  0.43750E+00 -0.87500E+00  0.00000E+00  0.00000E+00  0.00000E+00    0.12734E+03  0.12751E+03 -0.25485E+03 -0.92431E+01 -0.94756E+01  0.27572E+02      982.00
  0.86583E+00  0.38843E+03    0.45000E+00  0.45000E+00 -0.90000E+00  0.00000E+00  0.00000E+00  0.00000E+00    0.12827E+03  0.12846E+03 -0.25673E+03 -0.92177E+01 -0.94539E+01  0.26202E+02      982.00
  0.89062E+00  0.39095E+03    0.46250E+00  0.46250E+00 -0.92500E+00  0.00000E+00  0.00000E+00  0.00000E+00    0.12919E+03  0.12940E+03 -0.25859E+03 -0.91833E+01 -0.94227E+01  0.24903E+02      982.00
  0.91542E+00  0.39348E+03    0.47500E+00  0.47500E+00 -0.95000E+00  0.00000E+00  0.00000E+00  0.00000E+00    0.13011E+03  0.13034E+03 -0.26045E+03 -0.91408E+01 -0.93830E+01  0.23671E+02      982.00
  0.94024E+00  0.39601E+03    0.48750E+00  0.48750E+00 -0.97500E+00  0.00000E+00  0.00000E+00  0.00000E+00    0.13102E+03  0.13127E+03 -0.26229E+03 -0.90907E+01 -0.93355E+01  0.22503E+02      982.00
  0.96508E+00  0.39853E+03    0.50000E+00  0.50000E+00 -0.10000E+01  0.00000E+00  0.00000E+00  0.00000E+00    0.13193E+03  0.13219E+03 -0.26412E+03 -0.90338E+01 -0.92808E+01  0.21397E+02      982.00
