          Evm          Svm            E11          E22          E33          E23          E13          E12         SDEV11       SDEV22       SDEV33       SDEV23       SDEV13       SDEV12      TEMP
  0.00000E+00  0.17108E+03    0.00000E+00  0.00000E+00  0.00000E+00  0.00000E+00  0.00000E+00  0.00000E+00    0.55869E+02  0.49557E+02 -0.10543E+03  0.10648E+02  0.11962E+02  0.33968E+02      982.00
  0.23109E-01  0.17247E+03    0.12500E-01  0.12500E-01 -0.25000E-01  0.00000E+00  0.00000E+00  0.00000E+00    0.56096E+02  0.49673E+02 -0.10577E+03  0.88830E+01  0.96917E+01  0.36630E+02      982.00
  0.46106E-01  0.16743E+03    0.25000E-01  0.25000E-01 -0.50000E-01  0.00000E+00  0.00000E+00  0.00000E+00    0.53282E+02  0.49690E+02 -0.10297E+03  0.66207E+01  0.73431E+01  0.35924E+02      982.00
  0.69170E-01  0.16964E+03    0.37500E-01  0.37500E-01 -0.75000E-01  0.00000E+00  0.00000E+00  0.00000E+00    0.52408E+02  0.51082E+02 -0.10349E+03  0.55292E+01  0.62401E+01  0.38594E+02      982.00
  0.92047E-01  0.18213E+03    0.50000E-01  0.50000E-01 -0.10000E+00  0.00000E+00  0.00000E+00  0.00000E+00    0.54282E+02  0.54365E+02 -0.10865E+03  0.53750E+01  0.60405E+01  0.46240E+02      982.00
  0.11442E+00  0.20506E+03    0.62500E-01  0.62500E-01 -0.12500E+00  0.00000E+00  0.00000E+00  0.00000E+00    0.58517E+02  0.59629E+02 -0.11815E+03  0.58193E+01  0.64121E+01  0.58929E+02      982.00
  0.13602E+00  0.23993E+03    0.75000E-01  0.75000E-01 -0.15000E+00  0.00000E+00  0.00000E+00  0.00000E+00    0.65071E+02  0.67127E+02 -0.13220E+03  0.67062E+01  0.72104E+01  0.77357E+02      982.00
  0.15669E+00  0.28653E+03    0.87500E-01  0.87500E-01 -0.17500E+00  0.00000E+00  0.00000E+00  0.00000E+00    0.73679E+02  0.76742E+02 -0.15042E+03  0.78986E+01  0.83092E+01  0.10130E+03      982.00
  0.17637E+00  0.33831E+03    0.10000E+00  0.10000E+00 -0.20000E+00  0.00000E+00  0.00000E+00  0.00000E+00    0.83036E+02  0.87202E+02 -0.17024E+03  0.91209E+01  0.94405E+01  0.12743E+03      982.00
  0.19524E+00  0.38483E+03    0.11250E+00  0.11250E+00 -0.22500E+00  0.00000E+00  0.00000E+00  0.00000E+00    0.91296E+02  0.96565E+02 -0.18786E+03  0.10101E+02  0.10339E+02  0.15060E+03      982.00
  0.21355E+00  0.42166E+03    0.12500E+00  0.12500E+00 -0.25000E+00  0.00000E+00  0.00000E+00  0.00000E+00    0.97754E+02  0.10402E+03 -0.20177E+03  0.10789E+02  0.10957E+02  0.16878E+03      982.00
  0.23149E+00  0.44965E+03    0.13750E+00  0.13750E+00 -0.27500E+00  0.00000E+00  0.00000E+00  0.00000E+00    0.10260E+03  0.10972E+03 -0.21232E+03  0.11245E+02  0.11356E+02  0.18253E+03      982.00
  0.24920E+00  0.47066E+03    0.15000E+00  0.15000E+00 -0.30000E+00  0.00000E+00  0.00000E+00  0.00000E+00    0.10617E+03  0.11403E+03 -0.22020E+03  0.11546E+02  0.11613E+02  0.19285E+03      982.00
  0.26674E+00  0.48726E+03    0.16250E+00  0.16250E+00 -0.32500E+00  0.00000E+00  0.00000E+00  0.00000E+00    0.10891E+03  0.11744E+03 -0.22636E+03  0.11726E+02  0.11755E+02  0.20105E+03      982.00
  0.28416E+00  0.50019E+03    0.17500E+00  0.17500E+00 -0.35000E+00  0.00000E+00  0.00000E+00  0.00000E+00    0.11095E+03  0.12011E+03 -0.23106E+03  0.11818E+02  0.11817E+02  0.20750E+03      982.00
  0.30149E+00  0.51015E+03    0.18750E+00  0.18750E+00 -0.37500E+00  0.00000E+00  0.00000E+00  0.00000E+00    0.11241E+03  0.12217E+03 -0.23459E+03  0.11843E+02  0.11817E+02  0.21254E+03      982.00
  0.31873E+00  0.51891E+03    0.20000E+00  0.20000E+00 -0.40000E+00  0.00000E+00  0.00000E+00  0.00000E+00    0.11361E+03  0.12399E+03 -0.23761E+03  0.11803E+02  0.11754E+02  0.21705E+03      982.00
  0.33590E+00  0.52579E+03    0.21250E+00  0.21250E+00 -0.42500E+00  0.00000E+00  0.00000E+00  0.00000E+00    0.11450E+03  0.12537E+03 -0.23987E+03  0.11727E+02  0.11653E+02  0.22067E+03      982.00
  0.35301E+00  0.53184E+03    0.22500E+00  0.22500E+00 -0.45000E+00  0.00000E+00  0.00000E+00  0.00000E+00    0.11516E+03  0.12661E+03 -0.24178E+03  0.11581E+02  0.11485E+02  0.22393E+03      982.00
  0.37006E+00  0.53707E+03    0.23750E+00  0.23750E+00 -0.47500E+00  0.00000E+00  0.00000E+00  0.00000E+00    0.11563E+03  0.12771E+03 -0.24334E+03  0.11389E+02  0.11270E+02  0.22681E+03      982.00
  0.38705E+00  0.54176E+03    0.25000E+00  0.25000E+00 -0.50000E+00  0.00000E+00  0.00000E+00  0.00000E+00    0.11600E+03  0.12868E+03 -0.24468E+03  0.11162E+02  0.11017E+02  0.22945E+03      982.00
  0.40398E+00  0.54591E+03    0.26250E+00  0.26250E+00 -0.52500E+00  0.00000E+00  0.00000E+00  0.00000E+00    0.11626E+03  0.12954E+03 -0.24580E+03  0.10902E+02  0.10728E+02  0.23184E+03      982.00
  0.42087E+00  0.54953E+03    0.27500E+00  0.27500E+00 -0.55000E+00  0.00000E+00  0.00000E+00  0.00000E+00    0.11640E+03  0.13032E+03 -0.24672E+03  0.10616E+02  0.10410E+02  0.23396E+03      982.00
  0.43771E+00  0.55288E+03    0.28750E+00  0.28750E+00 -0.57500E+00  0.00000E+00  0.00000E+00  0.00000E+00    0.11652E+03  0.13102E+03 -0.24754E+03  0.10309E+02  0.10067E+02  0.23595E+03      982.00
  0.45450E+00  0.55403E+03    0.30000E+00  0.30000E+00 -0.60000E+00  0.00000E+00  0.00000E+00  0.00000E+00    0.11627E+03  0.13122E+03 -0.24749E+03  0.99598E+01  0.96806E+01  0.23691E+03      982.00
  0.47125E+00  0.55500E+03    0.31250E+00  0.31250E+00 -0.62500E+00  0.00000E+00  0.00000E+00  0.00000E+00    0.11602E+03  0.13140E+03 -0.24741E+03  0.96073E+01  0.92922E+01  0.23775E+03      982.00
  0.48796E+00  0.55584E+03    0.32500E+00  0.32500E+00 -0.65000E+00  0.00000E+00  0.00000E+00  0.00000E+00    0.11579E+03  0.13153E+03 -0.24732E+03  0.92596E+01  0.89033E+01  0.23850E+03      982.00
  0.50465E+00  0.55665E+03    0.33750E+00  0.33750E+00 -0.67500E+00  0.00000E+00  0.00000E+00  0.00000E+00    0.11560E+03  0.13165E+03 -0.24725E+03  0.89225E+01  0.85235E+01  0.23920E+03      982.00
  0.52131E+00  0.55753E+03    0.35000E+00  0.35000E+00 -0.70000E+00  0.00000E+00  0.00000E+00  0.00000E+00    0.11542E+03  0.13181E+03 -0.24724E+03  0.85872E+01  0.81469E+01  0.23992E+03      982.00
  0.53794E+00  0.55825E+03    0.36250E+00  0.36250E+00 -0.72500E+00  0.00000E+00  0.00000E+00  0.00000E+00    0.11527E+03  0.13192E+03 -0.24719E+03  0.82735E+01  0.77892E+01  0.24053E+03      982.00
  0.55454E+00  0.55894E+03    0.37500E+00  0.37500E+00 -0.75000E+00  0.00000E+00  0.00000E+00  0.00000E+00    0.11513E+03  0.13202E+03 -0.24716E+03  0.79729E+01  0.74444E+01  0.24111E+03      982.00
  0.57112E+00  0.55972E+03    0.38750E+00  0.38750E+00 -0.77500E+00  0.00000E+00  0.00000E+00  0.00000E+00    0.11501E+03  0.13217E+03 -0.24718E+03  0.76496E+01  0.70744E+01  0.24171E+03      982.00
  0.58768E+00  0.56032E+03    0.40000E+00  0.40000E+00 -0.80000E+00  0.00000E+00  0.00000E+00  0.00000E+00    0.11491E+03  0.13226E+03 -0.24717E+03  0.73761E+01  0.67576E+01  0.24220E+03      982.00
  0.60423E+00  0.56089E+03    0.41250E+00  0.41250E+00 -0.82500E+00  0.00000E+00  0.00000E+00  0.00000E+00    0.11482E+03  0.13234E+03 -0.24717E+03  0.71147E+01  0.64535E+01  0.24265E+03      982.00
  0.62075E+00  0.56141E+03    0.42500E+00  0.42500E+00 -0.85000E+00  0.00000E+00  0.00000E+00  0.00000E+00    0.11475E+03  0.13242E+03 -0.24717E+03  0.68650E+01  0.61622E+01  0.24306E+03      982.00
  0.63726E+00  0.56191E+03    0.43750E+00  0.43750E+00 -0.87500E+00  0.00000E+00  0.00000E+00  0.00000E+00    0.11470E+03  0.13249E+03 -0.24719E+03  0.66318E+01  0.58893E+01  0.24344E+03      982.00
  0.65376E+00  0.56245E+03    0.45000E+00  0.45000E+00 -0.90000E+00  0.00000E+00  0.00000E+00  0.00000E+00    0.11467E+03  0.13258E+03 -0.24726E+03  0.63392E+01  0.55488E+01  0.24382E+03      982.00
  0.67024E+00  0.56289E+03    0.46250E+00  0.46250E+00 -0.92500E+00  0.00000E+00  0.00000E+00  0.00000E+00    0.11463E+03  0.13265E+03 -0.24728E+03  0.61219E+01  0.52940E+01  0.24415E+03      982.00
  0.68672E+00  0.56329E+03    0.47500E+00  0.47500E+00 -0.95000E+00  0.00000E+00  0.00000E+00  0.00000E+00    0.11459E+03  0.13271E+03 -0.24730E+03  0.59323E+01  0.50700E+01  0.24445E+03      982.00
  0.70318E+00  0.56364E+03    0.48750E+00  0.48750E+00 -0.97500E+00  0.00000E+00  0.00000E+00  0.00000E+00    0.11457E+03  0.13274E+03 -0.24731E+03  0.57368E+01  0.48410E+01  0.24472E+03      982.00
  0.71963E+00  0.56399E+03    0.50000E+00  0.50000E+00 -0.10000E+01  0.00000E+00  0.00000E+00  0.00000E+00    0.11456E+03  0.13278E+03 -0.24734E+03  0.55443E+01  0.46162E+01  0.24497E+03      982.00
