          Evm          Svm            E11          E22          E33          E23          E13          E12         SDEV11       SDEV22       SDEV33       SDEV23       SDEV13       SDEV12      TEMP
  0.00000E+00  0.15658E+03    0.00000E+00  0.00000E+00  0.00000E+00  0.00000E+00  0.00000E+00  0.00000E+00    0.66321E+02  0.35272E+02 -0.10159E+03 -0.16222E+01 -0.10275E+01  0.13667E+02      982.00
  0.24331E-01  0.15835E+03    0.12500E-01  0.12500E-01 -0.25000E-01  0.00000E+00  0.00000E+00  0.00000E+00    0.68472E+02  0.33624E+02 -0.10210E+03 -0.12551E+01 -0.24501E+00  0.15321E+02      982.00
  0.48510E-01  0.16721E+03    0.25000E-01  0.25000E-01 -0.50000E-01  0.00000E+00  0.00000E+00  0.00000E+00    0.74509E+02  0.32083E+02 -0.10659E+03 -0.13358E+01 -0.45009E+00  0.18617E+02      982.00
  0.72415E-01  0.18610E+03    0.37500E-01  0.37500E-01 -0.75000E-01  0.00000E+00  0.00000E+00  0.00000E+00    0.86188E+02  0.30168E+02 -0.11636E+03 -0.18429E+01 -0.16156E+01  0.24499E+02      982.00
  0.95861E-01  0.21767E+03    0.50000E-01  0.50000E-01 -0.10000E+00  0.00000E+00  0.00000E+00  0.00000E+00    0.10503E+03  0.27215E+02 -0.13224E+03 -0.26905E+01 -0.35581E+01  0.33806E+02      982.00
  0.11864E+00  0.25760E+03    0.62500E-01  0.62500E-01 -0.12500E+00  0.00000E+00  0.00000E+00  0.00000E+00    0.12846E+03  0.23252E+02 -0.15172E+03 -0.35785E+01 -0.55134E+01  0.45225E+02      982.00
  0.14073E+00  0.29367E+03    0.75000E-01  0.75000E-01 -0.15000E+00  0.00000E+00  0.00000E+00  0.00000E+00    0.14941E+03  0.19643E+02 -0.16905E+03 -0.42722E+01 -0.69176E+01  0.55114E+02      982.00
  0.16232E+00  0.32014E+03    0.87500E-01  0.87500E-01 -0.17500E+00  0.00000E+00  0.00000E+00  0.00000E+00    0.16456E+03  0.17396E+02 -0.18196E+03 -0.48292E+01 -0.79991E+01  0.61878E+02      982.00
  0.18363E+00  0.34077E+03    0.10000E+00  0.10000E+00 -0.20000E+00  0.00000E+00  0.00000E+00  0.00000E+00    0.17625E+03  0.16007E+02 -0.19226E+03 -0.52605E+01 -0.87500E+01  0.66785E+02      982.00
  0.20479E+00  0.35807E+03    0.11250E+00  0.11250E+00 -0.22500E+00  0.00000E+00  0.00000E+00  0.00000E+00    0.18602E+03  0.15091E+02 -0.20111E+03 -0.55642E+01 -0.91146E+01  0.70630E+02      982.00
  0.22585E+00  0.37230E+03    0.12500E+00  0.12500E+00 -0.25000E+00  0.00000E+00  0.00000E+00  0.00000E+00    0.19400E+03  0.14599E+02 -0.20860E+03 -0.57588E+01 -0.91463E+01  0.73520E+02      982.00
  0.24686E+00  0.38341E+03    0.13750E+00  0.13750E+00 -0.27500E+00  0.00000E+00  0.00000E+00  0.00000E+00    0.20016E+03  0.14561E+02 -0.21473E+03 -0.58799E+01 -0.89630E+01  0.75460E+02      982.00
  0.26786E+00  0.39167E+03    0.15000E+00  0.15000E+00 -0.30000E+00  0.00000E+00  0.00000E+00  0.00000E+00    0.20465E+03  0.14971E+02 -0.21962E+03 -0.59620E+01 -0.86709E+01  0.76522E+02      982.00
  0.28889E+00  0.39709E+03    0.16250E+00  0.16250E+00 -0.32500E+00  0.00000E+00  0.00000E+00  0.00000E+00    0.20750E+03  0.15782E+02 -0.22328E+03 -0.60091E+01 -0.83280E+01  0.76643E+02      982.00
  0.30998E+00  0.40061E+03    0.17500E+00  0.17500E+00 -0.35000E+00  0.00000E+00  0.00000E+00  0.00000E+00    0.20912E+03  0.17051E+02 -0.22617E+03 -0.60945E+01 -0.80683E+01  0.76207E+02      982.00
  0.33115E+00  0.40260E+03    0.18750E+00  0.18750E+00 -0.37500E+00  0.00000E+00  0.00000E+00  0.00000E+00    0.20975E+03  0.18669E+02 -0.22842E+03 -0.61918E+01 -0.78585E+01  0.75295E+02      982.00
  0.35242E+00  0.40308E+03    0.20000E+00  0.20000E+00 -0.40000E+00  0.00000E+00  0.00000E+00  0.00000E+00    0.20949E+03  0.20562E+02 -0.23005E+03 -0.62982E+01 -0.77265E+01  0.73784E+02      982.00
  0.37383E+00  0.40251E+03    0.21250E+00  0.21250E+00 -0.42500E+00  0.00000E+00  0.00000E+00  0.00000E+00    0.20854E+03  0.22718E+02 -0.23125E+03 -0.64280E+01 -0.77006E+01  0.71853E+02      982.00
  0.39537E+00  0.40109E+03    0.22500E+00  0.22500E+00 -0.45000E+00  0.00000E+00  0.00000E+00  0.00000E+00    0.20700E+03  0.25134E+02 -0.23214E+03 -0.65996E+01 -0.78233E+01  0.69539E+02      982.00
  0.41707E+00  0.39913E+03    0.23750E+00  0.23750E+00 -0.47500E+00  0.00000E+00  0.00000E+00  0.00000E+00    0.20506E+03  0.27740E+02 -0.23280E+03 -0.67933E+01 -0.80621E+01  0.66935E+02      982.00
  0.43895E+00  0.39681E+03    0.25000E+00  0.25000E+00 -0.50000E+00  0.00000E+00  0.00000E+00  0.00000E+00    0.20283E+03  0.30501E+02 -0.23333E+03 -0.70081E+01 -0.84198E+01  0.64093E+02      982.00
  0.46100E+00  0.39437E+03    0.26250E+00  0.26250E+00 -0.52500E+00  0.00000E+00  0.00000E+00  0.00000E+00    0.20046E+03  0.33354E+02 -0.23381E+03 -0.72181E+01 -0.88494E+01  0.61074E+02      982.00
  0.48323E+00  0.39192E+03    0.27500E+00  0.27500E+00 -0.55000E+00  0.00000E+00  0.00000E+00  0.00000E+00    0.19800E+03  0.36280E+02 -0.23428E+03 -0.74356E+01 -0.93760E+01  0.57895E+02      982.00
  0.50565E+00  0.38824E+03    0.28750E+00  0.28750E+00 -0.57500E+00  0.00000E+00  0.00000E+00  0.00000E+00    0.19486E+03  0.39121E+02 -0.23398E+03 -0.75231E+01 -0.98805E+01  0.54479E+02      982.00
  0.52825E+00  0.38513E+03    0.30000E+00  0.30000E+00 -0.60000E+00  0.00000E+00  0.00000E+00  0.00000E+00    0.19204E+03  0.41850E+02 -0.23389E+03 -0.75725E+01 -0.10362E+02  0.51110E+02      982.00
  0.55102E+00  0.38257E+03    0.31250E+00  0.31250E+00 -0.62500E+00  0.00000E+00  0.00000E+00  0.00000E+00    0.18951E+03  0.44499E+02 -0.23400E+03 -0.75839E+01 -0.10822E+02  0.47813E+02      982.00
  0.57396E+00  0.38046E+03    0.32500E+00  0.32500E+00 -0.65000E+00  0.00000E+00  0.00000E+00  0.00000E+00    0.18720E+03  0.47106E+02 -0.23431E+03 -0.75984E+01 -0.11336E+02  0.44521E+02      982.00
  0.59705E+00  0.37883E+03    0.33750E+00  0.33750E+00 -0.67500E+00  0.00000E+00  0.00000E+00  0.00000E+00    0.18511E+03  0.49684E+02 -0.23479E+03 -0.75739E+01 -0.11797E+02  0.41359E+02      982.00
  0.62029E+00  0.37763E+03    0.35000E+00  0.35000E+00 -0.70000E+00  0.00000E+00  0.00000E+00  0.00000E+00    0.18316E+03  0.52293E+02 -0.23545E+03 -0.75698E+01 -0.12299E+02  0.38295E+02      982.00
  0.64368E+00  0.37684E+03    0.36250E+00  0.36250E+00 -0.72500E+00  0.00000E+00  0.00000E+00  0.00000E+00    0.18133E+03  0.54951E+02 -0.23628E+03 -0.75843E+01 -0.12815E+02  0.35361E+02      982.00
  0.66719E+00  0.37647E+03    0.37500E+00  0.37500E+00 -0.75000E+00  0.00000E+00  0.00000E+00  0.00000E+00    0.17961E+03  0.57681E+02 -0.23729E+03 -0.76306E+01 -0.13353E+02  0.32583E+02      982.00
  0.69082E+00  0.37647E+03    0.38750E+00  0.38750E+00 -0.77500E+00  0.00000E+00  0.00000E+00  0.00000E+00    0.17796E+03  0.60487E+02 -0.23845E+03 -0.77073E+01 -0.13907E+02  0.29960E+02      982.00
  0.71458E+00  0.37684E+03    0.40000E+00  0.40000E+00 -0.80000E+00  0.00000E+00  0.00000E+00  0.00000E+00    0.17638E+03  0.63387E+02 -0.23977E+03 -0.78291E+01 -0.14521E+02  0.27493E+02      982.00
  0.73844E+00  0.37754E+03    0.41250E+00  0.41250E+00 -0.82500E+00  0.00000E+00  0.00000E+00  0.00000E+00    0.17487E+03  0.66354E+02 -0.24123E+03 -0.79552E+01 -0.15090E+02  0.25211E+02      982.00
  0.76240E+00  0.37864E+03    0.42500E+00  0.42500E+00 -0.85000E+00  0.00000E+00  0.00000E+00  0.00000E+00    0.17346E+03  0.69401E+02 -0.24286E+03 -0.81327E+01 -0.15751E+02  0.23063E+02      982.00
  0.78645E+00  0.38008E+03    0.43750E+00  0.43750E+00 -0.87500E+00  0.00000E+00  0.00000E+00  0.00000E+00    0.17213E+03  0.72510E+02 -0.24464E+03 -0.83386E+01 -0.16472E+02  0.21055E+02      982.00
  0.81059E+00  0.38176E+03    0.45000E+00  0.45000E+00 -0.90000E+00  0.00000E+00  0.00000E+00  0.00000E+00    0.17086E+03  0.75652E+02 -0.24652E+03 -0.85329E+01 -0.17145E+02  0.19200E+02      982.00
  0.83480E+00  0.38372E+03    0.46250E+00  0.46250E+00 -0.92500E+00  0.00000E+00  0.00000E+00  0.00000E+00    0.16969E+03  0.78818E+02 -0.24850E+03 -0.87461E+01 -0.17878E+02  0.17471E+02      982.00
  0.85909E+00  0.38588E+03    0.47500E+00  0.47500E+00 -0.95000E+00  0.00000E+00  0.00000E+00  0.00000E+00    0.16860E+03  0.81958E+02 -0.25055E+03 -0.89275E+01 -0.18525E+02  0.15889E+02      982.00
  0.88343E+00  0.38821E+03    0.48750E+00  0.48750E+00 -0.97500E+00  0.00000E+00  0.00000E+00  0.00000E+00    0.16758E+03  0.85069E+02 -0.25265E+03 -0.90908E+01 -0.19148E+02  0.14434E+02      982.00
  0.90784E+00  0.39062E+03    0.50000E+00  0.50000E+00 -0.10000E+01  0.00000E+00  0.00000E+00  0.00000E+00    0.16665E+03  0.88112E+02 -0.25476E+03 -0.92126E+01 -0.19679E+02  0.13095E+02      982.00
