          Evm          Svm            E11          E22          E33          E23          E13          E12         SDEV11       SDEV22       SDEV33       SDEV23       SDEV13       SDEV12      TEMP
  0.00000E+00  0.19085E+03    0.00000E+00  0.00000E+00  0.00000E+00  0.00000E+00  0.00000E+00  0.00000E+00    0.57754E+02  0.56557E+02 -0.11431E+03 -0.16669E+02 -0.12808E+02  0.43573E+02      982.00
  0.22461E-01  0.18855E+03    0.12500E-01  0.12500E-01 -0.25000E-01  0.00000E+00  0.00000E+00  0.00000E+00    0.57553E+02  0.55491E+02 -0.11304E+03 -0.13694E+02 -0.99110E+01  0.44492E+02      982.00
  0.44944E-01  0.17419E+03    0.25000E-01  0.25000E-01 -0.50000E-01  0.00000E+00  0.00000E+00  0.00000E+00    0.53245E+02  0.52791E+02 -0.10604E+03 -0.97081E+01 -0.66404E+01  0.39286E+02      982.00
  0.67771E-01  0.17309E+03    0.37500E-01  0.37500E-01 -0.75000E-01  0.00000E+00  0.00000E+00  0.00000E+00    0.52040E+02  0.52957E+02 -0.10500E+03 -0.79734E+01 -0.53361E+01  0.40327E+02      982.00
  0.90518E-01  0.18451E+03    0.50000E-01  0.50000E-01 -0.10000E+00  0.00000E+00  0.00000E+00  0.00000E+00    0.53833E+02  0.55808E+02 -0.10964E+03 -0.76115E+01 -0.51268E+01  0.47407E+02      982.00
  0.11280E+00  0.20695E+03    0.62500E-01  0.62500E-01 -0.12500E+00  0.00000E+00  0.00000E+00  0.00000E+00    0.57960E+02  0.60969E+02 -0.11893E+03 -0.80116E+01 -0.55284E+01  0.59759E+02      982.00
  0.13435E+00  0.24151E+03    0.75000E-01  0.75000E-01 -0.15000E+00  0.00000E+00  0.00000E+00  0.00000E+00    0.64356E+02  0.68539E+02 -0.13289E+03 -0.89180E+01 -0.63778E+01  0.77926E+02      982.00
  0.15499E+00  0.28793E+03    0.87500E-01  0.87500E-01 -0.17500E+00  0.00000E+00  0.00000E+00  0.00000E+00    0.72810E+02  0.78321E+02 -0.15113E+03 -0.10139E+02 -0.75492E+01  0.10167E+03      982.00
  0.17467E+00  0.33998E+03    0.10000E+00  0.10000E+00 -0.20000E+00  0.00000E+00  0.00000E+00  0.00000E+00    0.82159E+02  0.88999E+02 -0.17116E+03 -0.11353E+02 -0.87685E+01  0.12783E+03      982.00
  0.19355E+00  0.38731E+03    0.11250E+00  0.11250E+00 -0.22500E+00  0.00000E+00  0.00000E+00  0.00000E+00    0.90621E+02  0.98568E+02 -0.18919E+03 -0.12270E+02 -0.97522E+01  0.15131E+03      982.00
  0.21187E+00  0.42515E+03    0.12500E+00  0.12500E+00 -0.25000E+00  0.00000E+00  0.00000E+00  0.00000E+00    0.97417E+02  0.10616E+03 -0.20358E+03 -0.12856E+02 -0.10448E+02  0.16992E+03      982.00
  0.22982E+00  0.45416E+03    0.13750E+00  0.13750E+00 -0.27500E+00  0.00000E+00  0.00000E+00  0.00000E+00    0.10267E+03  0.11193E+03 -0.21460E+03 -0.13195E+02 -0.10927E+02  0.18412E+03      982.00
  0.24754E+00  0.47591E+03    0.15000E+00  0.15000E+00 -0.30000E+00  0.00000E+00  0.00000E+00  0.00000E+00    0.10664E+03  0.11622E+03 -0.22286E+03 -0.13391E+02 -0.11266E+02  0.19473E+03      982.00
  0.26510E+00  0.49318E+03    0.16250E+00  0.16250E+00 -0.32500E+00  0.00000E+00  0.00000E+00  0.00000E+00    0.10982E+03  0.11955E+03 -0.22936E+03 -0.13474E+02 -0.11511E+02  0.20318E+03      982.00
  0.28254E+00  0.50638E+03    0.17500E+00  0.17500E+00 -0.35000E+00  0.00000E+00  0.00000E+00  0.00000E+00    0.11224E+03  0.12204E+03 -0.23428E+03 -0.13500E+02 -0.11696E+02  0.20968E+03      982.00
  0.29989E+00  0.51739E+03    0.18750E+00  0.18750E+00 -0.37500E+00  0.00000E+00  0.00000E+00  0.00000E+00    0.11426E+03  0.12403E+03 -0.23828E+03 -0.13443E+02 -0.11822E+02  0.21518E+03      982.00
  0.31716E+00  0.52633E+03    0.20000E+00  0.20000E+00 -0.40000E+00  0.00000E+00  0.00000E+00  0.00000E+00    0.11586E+03  0.12558E+03 -0.24144E+03 -0.13351E+02 -0.11911E+02  0.21972E+03      982.00
  0.33437E+00  0.53334E+03    0.21250E+00  0.21250E+00 -0.42500E+00  0.00000E+00  0.00000E+00  0.00000E+00    0.11709E+03  0.12676E+03 -0.24386E+03 -0.13242E+02 -0.11971E+02  0.22333E+03      982.00
  0.35151E+00  0.53943E+03    0.22500E+00  0.22500E+00 -0.45000E+00  0.00000E+00  0.00000E+00  0.00000E+00    0.11812E+03  0.12772E+03 -0.24584E+03 -0.13074E+02 -0.11990E+02  0.22656E+03      982.00
  0.36860E+00  0.54523E+03    0.23750E+00  0.23750E+00 -0.47500E+00  0.00000E+00  0.00000E+00  0.00000E+00    0.11907E+03  0.12862E+03 -0.24769E+03 -0.12894E+02 -0.11994E+02  0.22966E+03      982.00
  0.38564E+00  0.54982E+03    0.25000E+00  0.25000E+00 -0.50000E+00  0.00000E+00  0.00000E+00  0.00000E+00    0.11978E+03  0.12929E+03 -0.24906E+03 -0.12684E+02 -0.11963E+02  0.23220E+03      982.00
  0.40262E+00  0.55386E+03    0.26250E+00  0.26250E+00 -0.52500E+00  0.00000E+00  0.00000E+00  0.00000E+00    0.12036E+03  0.12985E+03 -0.25020E+03 -0.12448E+02 -0.11903E+02  0.23448E+03      982.00
  0.41957E+00  0.55744E+03    0.27500E+00  0.27500E+00 -0.55000E+00  0.00000E+00  0.00000E+00  0.00000E+00    0.12084E+03  0.13032E+03 -0.25116E+03 -0.12187E+02 -0.11815E+02  0.23656E+03      982.00
  0.43646E+00  0.56114E+03    0.28750E+00  0.28750E+00 -0.57500E+00  0.00000E+00  0.00000E+00  0.00000E+00    0.12135E+03  0.13077E+03 -0.25213E+03 -0.11902E+02 -0.11699E+02  0.23871E+03      982.00
  0.45331E+00  0.56176E+03    0.30000E+00  0.30000E+00 -0.60000E+00  0.00000E+00  0.00000E+00  0.00000E+00    0.12137E+03  0.13053E+03 -0.25191E+03 -0.11535E+02 -0.11462E+02  0.23940E+03      982.00
  0.47013E+00  0.56244E+03    0.31250E+00  0.31250E+00 -0.62500E+00  0.00000E+00  0.00000E+00  0.00000E+00    0.12132E+03  0.13039E+03 -0.25172E+03 -0.11184E+02 -0.11244E+02  0.24011E+03      982.00
  0.48691E+00  0.56303E+03    0.32500E+00  0.32500E+00 -0.65000E+00  0.00000E+00  0.00000E+00  0.00000E+00    0.12126E+03  0.13025E+03 -0.25151E+03 -0.10838E+02 -0.11018E+02  0.24076E+03      982.00
  0.50366E+00  0.56358E+03    0.33750E+00  0.33750E+00 -0.67500E+00  0.00000E+00  0.00000E+00  0.00000E+00    0.12120E+03  0.13012E+03 -0.25132E+03 -0.10497E+02 -0.10787E+02  0.24137E+03      982.00
  0.52038E+00  0.56410E+03    0.35000E+00  0.35000E+00 -0.70000E+00  0.00000E+00  0.00000E+00  0.00000E+00    0.12116E+03  0.12998E+03 -0.25114E+03 -0.10162E+02 -0.10554E+02  0.24194E+03      982.00
  0.53708E+00  0.56458E+03    0.36250E+00  0.36250E+00 -0.72500E+00  0.00000E+00  0.00000E+00  0.00000E+00    0.12112E+03  0.12984E+03 -0.25096E+03 -0.98352E+01 -0.10320E+02  0.24247E+03      982.00
  0.55375E+00  0.56502E+03    0.37500E+00  0.37500E+00 -0.75000E+00  0.00000E+00  0.00000E+00  0.00000E+00    0.12109E+03  0.12971E+03 -0.25080E+03 -0.95169E+01 -0.10086E+02  0.24296E+03      982.00
  0.57039E+00  0.56543E+03    0.38750E+00  0.38750E+00 -0.77500E+00  0.00000E+00  0.00000E+00  0.00000E+00    0.12107E+03  0.12957E+03 -0.25064E+03 -0.92078E+01 -0.98528E+01  0.24342E+03      982.00
  0.58702E+00  0.56594E+03    0.40000E+00  0.40000E+00 -0.80000E+00  0.00000E+00  0.00000E+00  0.00000E+00    0.12113E+03  0.12941E+03 -0.25054E+03 -0.87996E+01 -0.95367E+01  0.24393E+03      982.00
  0.60362E+00  0.56629E+03    0.41250E+00  0.41250E+00 -0.82500E+00  0.00000E+00  0.00000E+00  0.00000E+00    0.12113E+03  0.12928E+03 -0.25041E+03 -0.85140E+01 -0.93117E+01  0.24432E+03      982.00
  0.62020E+00  0.56661E+03    0.42500E+00  0.42500E+00 -0.85000E+00  0.00000E+00  0.00000E+00  0.00000E+00    0.12117E+03  0.12912E+03 -0.25029E+03 -0.82526E+01 -0.91012E+01  0.24468E+03      982.00
  0.63676E+00  0.56689E+03    0.43750E+00  0.43750E+00 -0.87500E+00  0.00000E+00  0.00000E+00  0.00000E+00    0.12119E+03  0.12897E+03 -0.25017E+03 -0.79877E+01 -0.88846E+01  0.24500E+03      982.00
  0.65331E+00  0.56714E+03    0.45000E+00  0.45000E+00 -0.90000E+00  0.00000E+00  0.00000E+00  0.00000E+00    0.12122E+03  0.12883E+03 -0.25005E+03 -0.77311E+01 -0.86721E+01  0.24530E+03      982.00
  0.66985E+00  0.56733E+03    0.46250E+00  0.46250E+00 -0.92500E+00  0.00000E+00  0.00000E+00  0.00000E+00    0.12119E+03  0.12879E+03 -0.24997E+03 -0.74948E+01 -0.84778E+01  0.24552E+03      982.00
  0.68637E+00  0.56754E+03    0.47500E+00  0.47500E+00 -0.95000E+00  0.00000E+00  0.00000E+00  0.00000E+00    0.12122E+03  0.12866E+03 -0.24988E+03 -0.72540E+01 -0.82733E+01  0.24577E+03      982.00
  0.70288E+00  0.56774E+03    0.48750E+00  0.48750E+00 -0.97500E+00  0.00000E+00  0.00000E+00  0.00000E+00    0.12133E+03  0.12846E+03 -0.24979E+03 -0.70410E+01 -0.80887E+01  0.24601E+03      982.00
  0.71938E+00  0.56791E+03    0.50000E+00  0.50000E+00 -0.10000E+01  0.00000E+00  0.00000E+00  0.00000E+00    0.12136E+03  0.12834E+03 -0.24970E+03 -0.68217E+01 -0.78984E+01  0.24622E+03      982.00
