          Evm          Svm            E11          E22          E33          E23          E13          E12         SDEV11       SDEV22       SDEV33       SDEV23       SDEV13       SDEV12      TEMP
  0.00000E+00  0.15284E+03    0.00000E+00  0.00000E+00  0.00000E+00  0.00000E+00  0.00000E+00  0.00000E+00    0.45606E+02  0.52893E+02 -0.98498E+02 -0.49957E+01 -0.99359E+01  0.19320E+02      982.00
  0.24167E-01  0.16155E+03    0.12500E-01  0.12500E-01 -0.25000E-01  0.00000E+00  0.00000E+00  0.00000E+00    0.51660E+02  0.51377E+02 -0.10304E+03 -0.54666E+01 -0.94293E+01  0.24853E+02      982.00
  0.48085E-01  0.17424E+03    0.25000E-01  0.25000E-01 -0.50000E-01  0.00000E+00  0.00000E+00  0.00000E+00    0.61209E+02  0.48019E+02 -0.10923E+03 -0.59957E+01 -0.80312E+01  0.32053E+02      982.00
  0.71594E-01  0.17928E+03    0.37500E-01  0.37500E-01 -0.75000E-01  0.00000E+00  0.00000E+00  0.00000E+00    0.65945E+02  0.45197E+02 -0.11114E+03 -0.63264E+01 -0.65501E+01  0.35484E+02      982.00
  0.94841E-01  0.18638E+03    0.50000E-01  0.50000E-01 -0.10000E+00  0.00000E+00  0.00000E+00  0.00000E+00    0.69670E+02  0.44408E+02 -0.11408E+03 -0.67561E+01 -0.66452E+01  0.39625E+02      982.00
  0.11779E+00  0.20014E+03    0.62500E-01  0.62500E-01 -0.12500E+00  0.00000E+00  0.00000E+00  0.00000E+00    0.75304E+02  0.44811E+02 -0.12012E+03 -0.73393E+01 -0.75209E+01  0.46773E+02      982.00
  0.14030E+00  0.22142E+03    0.75000E-01  0.75000E-01 -0.15000E+00  0.00000E+00  0.00000E+00  0.00000E+00    0.83211E+02  0.46308E+02 -0.12952E+03 -0.80870E+01 -0.89153E+01  0.57234E+02      982.00
  0.16224E+00  0.25115E+03    0.87500E-01  0.87500E-01 -0.17500E+00  0.00000E+00  0.00000E+00  0.00000E+00    0.93701E+02  0.48790E+02 -0.14249E+03 -0.90005E+01 -0.10620E+02  0.71416E+02      982.00
  0.18351E+00  0.28856E+03    0.10000E+00  0.10000E+00 -0.20000E+00  0.00000E+00  0.00000E+00  0.00000E+00    0.10630E+03  0.52216E+02 -0.15852E+03 -0.10002E+02 -0.12414E+02  0.89021E+02      982.00
  0.20411E+00  0.32816E+03    0.11250E+00  0.11250E+00 -0.22500E+00  0.00000E+00  0.00000E+00  0.00000E+00    0.11896E+03  0.56350E+02 -0.17531E+03 -0.10805E+02 -0.14021E+02  0.10749E+03      982.00
  0.22414E+00  0.36498E+03    0.12500E+00  0.12500E+00 -0.25000E+00  0.00000E+00  0.00000E+00  0.00000E+00    0.12994E+03  0.60843E+02 -0.19078E+03 -0.11323E+02 -0.15178E+02  0.12471E+03      982.00
  0.24375E+00  0.39540E+03    0.13750E+00  0.13750E+00 -0.27500E+00  0.00000E+00  0.00000E+00  0.00000E+00    0.13836E+03  0.65200E+02 -0.20356E+03 -0.11512E+02 -0.15886E+02  0.13896E+03      982.00
  0.26305E+00  0.41932E+03    0.15000E+00  0.15000E+00 -0.30000E+00  0.00000E+00  0.00000E+00  0.00000E+00    0.14451E+03  0.69134E+02 -0.21364E+03 -0.11460E+02 -0.16238E+02  0.15021E+03      982.00
  0.28216E+00  0.43794E+03    0.16250E+00  0.16250E+00 -0.32500E+00  0.00000E+00  0.00000E+00  0.00000E+00    0.14898E+03  0.72528E+02 -0.22151E+03 -0.11259E+02 -0.16331E+02  0.15898E+03      982.00
  0.30113E+00  0.45246E+03    0.17500E+00  0.17500E+00 -0.35000E+00  0.00000E+00  0.00000E+00  0.00000E+00    0.15221E+03  0.75457E+02 -0.22766E+03 -0.10979E+02 -0.16242E+02  0.16586E+03      982.00
  0.31999E+00  0.46393E+03    0.18750E+00  0.18750E+00 -0.37500E+00  0.00000E+00  0.00000E+00  0.00000E+00    0.15452E+03  0.78005E+02 -0.23253E+03 -0.10664E+02 -0.16021E+02  0.17134E+03      982.00
  0.33879E+00  0.47308E+03    0.20000E+00  0.20000E+00 -0.40000E+00  0.00000E+00  0.00000E+00  0.00000E+00    0.15615E+03  0.80272E+02 -0.23642E+03 -0.10341E+02 -0.15699E+02  0.17575E+03      982.00
  0.35753E+00  0.48050E+03    0.21250E+00  0.21250E+00 -0.42500E+00  0.00000E+00  0.00000E+00  0.00000E+00    0.15728E+03  0.82296E+02 -0.23957E+03 -0.10024E+02 -0.15298E+02  0.17937E+03      982.00
  0.37623E+00  0.48654E+03    0.22500E+00  0.22500E+00 -0.45000E+00  0.00000E+00  0.00000E+00  0.00000E+00    0.15793E+03  0.84215E+02 -0.24215E+03 -0.97259E+01 -0.14837E+02  0.18237E+03      982.00
  0.39489E+00  0.49154E+03    0.23750E+00  0.23750E+00 -0.47500E+00  0.00000E+00  0.00000E+00  0.00000E+00    0.15830E+03  0.85989E+02 -0.24429E+03 -0.94450E+01 -0.14323E+02  0.18488E+03      982.00
  0.41353E+00  0.49568E+03    0.25000E+00  0.25000E+00 -0.50000E+00  0.00000E+00  0.00000E+00  0.00000E+00    0.15834E+03  0.87735E+02 -0.24608E+03 -0.91848E+01 -0.13774E+02  0.18698E+03      982.00
  0.43214E+00  0.49556E+03    0.26250E+00  0.26250E+00 -0.52500E+00  0.00000E+00  0.00000E+00  0.00000E+00    0.15756E+03  0.88469E+02 -0.24602E+03 -0.89876E+01 -0.13143E+02  0.18713E+03      982.00
  0.45076E+00  0.49535E+03    0.27500E+00  0.27500E+00 -0.55000E+00  0.00000E+00  0.00000E+00  0.00000E+00    0.15672E+03  0.89247E+02 -0.24597E+03 -0.87935E+01 -0.12528E+02  0.18720E+03      982.00
  0.46938E+00  0.49509E+03    0.28750E+00  0.28750E+00 -0.57500E+00  0.00000E+00  0.00000E+00  0.00000E+00    0.15589E+03  0.90027E+02 -0.24592E+03 -0.85981E+01 -0.11929E+02  0.18721E+03      982.00
  0.48801E+00  0.49476E+03    0.30000E+00  0.30000E+00 -0.60000E+00  0.00000E+00  0.00000E+00  0.00000E+00    0.15508E+03  0.90785E+02 -0.24587E+03 -0.83967E+01 -0.11351E+02  0.18715E+03      982.00
  0.50664E+00  0.49437E+03    0.31250E+00  0.31250E+00 -0.62500E+00  0.00000E+00  0.00000E+00  0.00000E+00    0.15427E+03  0.91550E+02 -0.24582E+03 -0.81885E+01 -0.10797E+02  0.18702E+03      982.00
  0.52529E+00  0.49389E+03    0.32500E+00  0.32500E+00 -0.65000E+00  0.00000E+00  0.00000E+00  0.00000E+00    0.15355E+03  0.92218E+02 -0.24577E+03 -0.79659E+01 -0.10267E+02  0.18681E+03      982.00
  0.54395E+00  0.49335E+03    0.33750E+00  0.33750E+00 -0.67500E+00  0.00000E+00  0.00000E+00  0.00000E+00    0.15285E+03  0.92876E+02 -0.24572E+03 -0.77322E+01 -0.97635E+01  0.18653E+03      982.00
  0.56263E+00  0.49270E+03    0.35000E+00  0.35000E+00 -0.70000E+00  0.00000E+00  0.00000E+00  0.00000E+00    0.15224E+03  0.93424E+02 -0.24566E+03 -0.74849E+01 -0.92846E+01  0.18614E+03      982.00
  0.58133E+00  0.49199E+03    0.36250E+00  0.36250E+00 -0.72500E+00  0.00000E+00  0.00000E+00  0.00000E+00    0.15164E+03  0.93963E+02 -0.24560E+03 -0.72265E+01 -0.88321E+01  0.18570E+03      982.00
  0.60005E+00  0.49116E+03    0.37500E+00  0.37500E+00 -0.75000E+00  0.00000E+00  0.00000E+00  0.00000E+00    0.15113E+03  0.94393E+02 -0.24552E+03 -0.69575E+01 -0.83992E+01  0.18515E+03      982.00
  0.61879E+00  0.49024E+03    0.38750E+00  0.38750E+00 -0.77500E+00  0.00000E+00  0.00000E+00  0.00000E+00    0.15061E+03  0.94821E+02 -0.24543E+03 -0.66812E+01 -0.79927E+01  0.18452E+03      982.00
  0.63757E+00  0.48920E+03    0.40000E+00  0.40000E+00 -0.80000E+00  0.00000E+00  0.00000E+00  0.00000E+00    0.15017E+03  0.95151E+02 -0.24532E+03 -0.63956E+01 -0.75973E+01  0.18379E+03      982.00
  0.65637E+00  0.48795E+03    0.41250E+00  0.41250E+00 -0.82500E+00  0.00000E+00  0.00000E+00  0.00000E+00    0.14967E+03  0.95487E+02 -0.24516E+03 -0.61033E+01 -0.72353E+01  0.18293E+03      982.00
  0.67521E+00  0.48664E+03    0.42500E+00  0.42500E+00 -0.85000E+00  0.00000E+00  0.00000E+00  0.00000E+00    0.14926E+03  0.95735E+02 -0.24500E+03 -0.58043E+01 -0.68682E+01  0.18200E+03      982.00
  0.69409E+00  0.48502E+03    0.43750E+00  0.43750E+00 -0.87500E+00  0.00000E+00  0.00000E+00  0.00000E+00    0.14876E+03  0.95967E+02 -0.24473E+03 -0.55036E+01 -0.65400E+01  0.18090E+03      982.00
  0.71301E+00  0.48340E+03    0.45000E+00  0.45000E+00 -0.90000E+00  0.00000E+00  0.00000E+00  0.00000E+00    0.14835E+03  0.96156E+02 -0.24450E+03 -0.51947E+01 -0.61941E+01  0.17975E+03      982.00
  0.73198E+00  0.48161E+03    0.46250E+00  0.46250E+00 -0.92500E+00  0.00000E+00  0.00000E+00  0.00000E+00    0.14792E+03  0.96323E+02 -0.24425E+03 -0.48823E+01 -0.58572E+01  0.17847E+03      982.00
  0.75100E+00  0.47964E+03    0.47500E+00  0.47500E+00 -0.95000E+00  0.00000E+00  0.00000E+00  0.00000E+00    0.14748E+03  0.96474E+02 -0.24395E+03 -0.45671E+01 -0.55285E+01  0.17706E+03      982.00
  0.77007E+00  0.47731E+03    0.48750E+00  0.48750E+00 -0.97500E+00  0.00000E+00  0.00000E+00  0.00000E+00    0.14695E+03  0.96614E+02 -0.24356E+03 -0.42614E+01 -0.52112E+01  0.17541E+03      982.00
  0.78921E+00  0.47489E+03    0.50000E+00  0.50000E+00 -0.10000E+01  0.00000E+00  0.00000E+00  0.00000E+00    0.14643E+03  0.96743E+02 -0.24317E+03 -0.39413E+01 -0.48963E+01  0.17369E+03      982.00
