          Evm          Svm            E11          E22          E33          E23          E13          E12         SDEV11       SDEV22       SDEV33       SDEV23       SDEV13       SDEV12      TEMP
  0.00000E+00  0.15144E+03    0.00000E+00  0.00000E+00  0.00000E+00  0.00000E+00  0.00000E+00  0.00000E+00    0.44009E+02  0.54878E+02 -0.98887E+02 -0.38474E+01 -0.90119E+01  0.13626E+02      982.00
  0.24486E-01  0.15059E+03    0.12500E-01  0.12500E-01 -0.25000E-01  0.00000E+00  0.00000E+00  0.00000E+00    0.44378E+02  0.53822E+02 -0.98200E+02 -0.35432E+01 -0.79691E+01  0.15115E+02      982.00
  0.48940E-01  0.15537E+03    0.25000E-01  0.25000E-01 -0.50000E-01  0.00000E+00  0.00000E+00  0.00000E+00    0.47613E+02  0.53248E+02 -0.10086E+03 -0.36949E+01 -0.76240E+01  0.18367E+02      982.00
  0.73283E-01  0.16904E+03    0.37500E-01  0.37500E-01 -0.75000E-01  0.00000E+00  0.00000E+00  0.00000E+00    0.56074E+02  0.52432E+02 -0.10851E+03 -0.43811E+01 -0.77949E+01  0.24730E+02      982.00
  0.97354E-01  0.19479E+03    0.50000E-01  0.50000E-01 -0.10000E+00  0.00000E+00  0.00000E+00  0.00000E+00    0.72639E+02  0.49437E+02 -0.12208E+03 -0.55941E+01 -0.77790E+01  0.35275E+02      982.00
  0.12086E+00  0.21561E+03    0.62500E-01  0.62500E-01 -0.12500E+00  0.00000E+00  0.00000E+00  0.00000E+00    0.86364E+02  0.45710E+02 -0.13207E+03 -0.65587E+01 -0.69396E+01  0.43697E+02      982.00
  0.14383E+00  0.23191E+03    0.75000E-01  0.75000E-01 -0.15000E+00  0.00000E+00  0.00000E+00  0.00000E+00    0.94068E+02  0.45670E+02 -0.13974E+03 -0.72843E+01 -0.74390E+01  0.50872E+02      982.00
  0.16642E+00  0.25468E+03    0.87500E-01  0.87500E-01 -0.17500E+00  0.00000E+00  0.00000E+00  0.00000E+00    0.10259E+03  0.48129E+02 -0.15071E+03 -0.79088E+01 -0.89148E+01  0.60844E+02      982.00
  0.18861E+00  0.28345E+03    0.10000E+00  0.10000E+00 -0.20000E+00  0.00000E+00  0.00000E+00  0.00000E+00    0.11258E+03  0.51927E+02 -0.16450E+03 -0.84183E+01 -0.10454E+02  0.73384E+02      982.00
  0.21038E+00  0.31311E+03    0.11250E+00  0.11250E+00 -0.22500E+00  0.00000E+00  0.00000E+00  0.00000E+00    0.12226E+03  0.56427E+02 -0.17869E+03 -0.86676E+01 -0.11679E+02  0.86238E+02      982.00
  0.23178E+00  0.33957E+03    0.12500E+00  0.12500E+00 -0.25000E+00  0.00000E+00  0.00000E+00  0.00000E+00    0.13042E+03  0.60979E+02 -0.19140E+03 -0.86226E+01 -0.12462E+02  0.97600E+02      982.00
  0.25291E+00  0.36116E+03    0.13750E+00  0.13750E+00 -0.27500E+00  0.00000E+00  0.00000E+00  0.00000E+00    0.13680E+03  0.65107E+02 -0.20191E+03 -0.83422E+01 -0.12849E+02  0.10670E+03      982.00
  0.27388E+00  0.37794E+03    0.15000E+00  0.15000E+00 -0.30000E+00  0.00000E+00  0.00000E+00  0.00000E+00    0.14162E+03  0.68650E+02 -0.21027E+03 -0.79102E+01 -0.12948E+02  0.11355E+03      982.00
  0.29474E+00  0.39054E+03    0.16250E+00  0.16250E+00 -0.32500E+00  0.00000E+00  0.00000E+00  0.00000E+00    0.14519E+03  0.71601E+02 -0.21679E+03 -0.73889E+01 -0.12849E+02  0.11840E+03      982.00
  0.31556E+00  0.39985E+03    0.17500E+00  0.17500E+00 -0.35000E+00  0.00000E+00  0.00000E+00  0.00000E+00    0.14773E+03  0.74146E+02 -0.22188E+03 -0.68341E+01 -0.12630E+02  0.12170E+03      982.00
  0.33637E+00  0.40642E+03    0.18750E+00  0.18750E+00 -0.37500E+00  0.00000E+00  0.00000E+00  0.00000E+00    0.14945E+03  0.76357E+02 -0.22580E+03 -0.62672E+01 -0.12339E+02  0.12366E+03      982.00
  0.35720E+00  0.41095E+03    0.20000E+00  0.20000E+00 -0.40000E+00  0.00000E+00  0.00000E+00  0.00000E+00    0.15058E+03  0.78280E+02 -0.22886E+03 -0.57101E+01 -0.12000E+02  0.12460E+03      982.00
  0.37809E+00  0.41371E+03    0.21250E+00  0.21250E+00 -0.42500E+00  0.00000E+00  0.00000E+00  0.00000E+00    0.15110E+03  0.80089E+02 -0.23119E+03 -0.51812E+01 -0.11640E+02  0.12466E+03      982.00
  0.39904E+00  0.41502E+03    0.22500E+00  0.22500E+00 -0.45000E+00  0.00000E+00  0.00000E+00  0.00000E+00    0.15116E+03  0.81784E+02 -0.23295E+03 -0.46813E+01 -0.11294E+02  0.12394E+03      982.00
  0.42009E+00  0.41523E+03    0.23750E+00  0.23750E+00 -0.47500E+00  0.00000E+00  0.00000E+00  0.00000E+00    0.15091E+03  0.83369E+02 -0.23428E+03 -0.42149E+01 -0.10973E+02  0.12260E+03      982.00
  0.44125E+00  0.41141E+03    0.25000E+00  0.25000E+00 -0.50000E+00  0.00000E+00  0.00000E+00  0.00000E+00    0.14960E+03  0.84014E+02 -0.23361E+03 -0.38847E+01 -0.10643E+02  0.11951E+03      982.00
  0.46254E+00  0.40765E+03    0.26250E+00  0.26250E+00 -0.52500E+00  0.00000E+00  0.00000E+00  0.00000E+00    0.14807E+03  0.84918E+02 -0.23298E+03 -0.35924E+01 -0.10348E+02  0.11647E+03      982.00
  0.48397E+00  0.40385E+03    0.27500E+00  0.27500E+00 -0.55000E+00  0.00000E+00  0.00000E+00  0.00000E+00    0.14641E+03  0.85935E+02 -0.23235E+03 -0.33319E+01 -0.10100E+02  0.11335E+03      982.00
  0.50555E+00  0.40022E+03    0.28750E+00  0.28750E+00 -0.57500E+00  0.00000E+00  0.00000E+00  0.00000E+00    0.14479E+03  0.87008E+02 -0.23180E+03 -0.30990E+01 -0.98805E+01  0.11023E+03      982.00
  0.52727E+00  0.39669E+03    0.30000E+00  0.30000E+00 -0.60000E+00  0.00000E+00  0.00000E+00  0.00000E+00    0.14315E+03  0.88159E+02 -0.23131E+03 -0.28984E+01 -0.96967E+01  0.10709E+03      982.00
  0.54913E+00  0.39329E+03    0.31250E+00  0.31250E+00 -0.62500E+00  0.00000E+00  0.00000E+00  0.00000E+00    0.14148E+03  0.89392E+02 -0.23088E+03 -0.27310E+01 -0.95470E+01  0.10394E+03      982.00
  0.57115E+00  0.39004E+03    0.32500E+00  0.32500E+00 -0.65000E+00  0.00000E+00  0.00000E+00  0.00000E+00    0.13981E+03  0.90707E+02 -0.23051E+03 -0.25973E+01 -0.94292E+01  0.10080E+03      982.00
  0.59331E+00  0.38698E+03    0.33750E+00  0.33750E+00 -0.67500E+00  0.00000E+00  0.00000E+00  0.00000E+00    0.13811E+03  0.92119E+02 -0.23023E+03 -0.24991E+01 -0.93412E+01  0.97678E+02      982.00
  0.61562E+00  0.38394E+03    0.35000E+00  0.35000E+00 -0.70000E+00  0.00000E+00  0.00000E+00  0.00000E+00    0.13628E+03  0.93672E+02 -0.22995E+03 -0.24315E+01 -0.93121E+01  0.94516E+02      982.00
  0.63808E+00  0.38131E+03    0.36250E+00  0.36250E+00 -0.72500E+00  0.00000E+00  0.00000E+00  0.00000E+00    0.13459E+03  0.95248E+02 -0.22984E+03 -0.23955E+01 -0.92701E+01  0.91470E+02      982.00
  0.66068E+00  0.37890E+03    0.37500E+00  0.37500E+00 -0.75000E+00  0.00000E+00  0.00000E+00  0.00000E+00    0.13291E+03  0.96907E+02 -0.22982E+03 -0.23891E+01 -0.92480E+01  0.88474E+02      982.00
  0.68343E+00  0.37674E+03    0.38750E+00  0.38750E+00 -0.77500E+00  0.00000E+00  0.00000E+00  0.00000E+00    0.13125E+03  0.98638E+02 -0.22989E+03 -0.24088E+01 -0.92422E+01  0.85533E+02      982.00
  0.70631E+00  0.37482E+03    0.40000E+00  0.40000E+00 -0.80000E+00  0.00000E+00  0.00000E+00  0.00000E+00    0.12964E+03  0.10042E+03 -0.23006E+03 -0.24493E+01 -0.92501E+01  0.82644E+02      982.00
  0.72933E+00  0.37324E+03    0.41250E+00  0.41250E+00 -0.82500E+00  0.00000E+00  0.00000E+00  0.00000E+00    0.12822E+03  0.10215E+03 -0.23036E+03 -0.25051E+01 -0.92417E+01  0.79843E+02      982.00
  0.75247E+00  0.37175E+03    0.42500E+00  0.42500E+00 -0.85000E+00  0.00000E+00  0.00000E+00  0.00000E+00    0.12663E+03  0.10404E+03 -0.23067E+03 -0.25734E+01 -0.93071E+01  0.77059E+02      982.00
  0.77574E+00  0.37055E+03    0.43750E+00  0.43750E+00 -0.87500E+00  0.00000E+00  0.00000E+00  0.00000E+00    0.12524E+03  0.10585E+03 -0.23110E+03 -0.26474E+01 -0.93348E+01  0.74353E+02      982.00
  0.79913E+00  0.36962E+03    0.45000E+00  0.45000E+00 -0.90000E+00  0.00000E+00  0.00000E+00  0.00000E+00    0.12400E+03  0.10762E+03 -0.23162E+03 -0.27216E+01 -0.93379E+01  0.71714E+02      982.00
  0.82263E+00  0.36888E+03    0.46250E+00  0.46250E+00 -0.92500E+00  0.00000E+00  0.00000E+00  0.00000E+00    0.12287E+03  0.10933E+03 -0.23220E+03 -0.27919E+01 -0.93732E+01  0.69127E+02      982.00
  0.84623E+00  0.36837E+03    0.47500E+00  0.47500E+00 -0.95000E+00  0.00000E+00  0.00000E+00  0.00000E+00    0.12188E+03  0.11098E+03 -0.23286E+03 -0.28564E+01 -0.94095E+01  0.66607E+02      982.00
  0.86994E+00  0.36795E+03    0.48750E+00  0.48750E+00 -0.97500E+00  0.00000E+00  0.00000E+00  0.00000E+00    0.12091E+03  0.11262E+03 -0.23353E+03 -0.29128E+01 -0.94654E+01  0.64134E+02      982.00
  0.89374E+00  0.36792E+03    0.50000E+00  0.50000E+00 -0.10000E+01  0.00000E+00  0.00000E+00  0.00000E+00    0.12029E+03  0.11408E+03 -0.23437E+03 -0.29603E+01 -0.94847E+01  0.61776E+02      982.00
