          Evm          Svm            E11          E22          E33          E23          E13          E12         SDEV11       SDEV22       SDEV33       SDEV23       SDEV13       SDEV12      TEMP
  0.00000E+00  0.18682E+03    0.00000E+00  0.00000E+00  0.00000E+00  0.00000E+00  0.00000E+00  0.00000E+00    0.66830E+02  0.56512E+02 -0.12334E+03  0.60788E+01  0.48172E+01  0.11734E+02      982.00
  0.24758E-01  0.19038E+03    0.12500E-01  0.12500E-01 -0.25000E-01  0.00000E+00  0.00000E+00  0.00000E+00    0.64257E+02  0.61440E+02 -0.12570E+03  0.63831E+01  0.42706E+01  0.13087E+02      982.00
  0.49516E-01  0.19235E+03    0.25000E-01  0.25000E-01 -0.50000E-01  0.00000E+00  0.00000E+00  0.00000E+00    0.61080E+02  0.65799E+02 -0.12688E+03  0.66091E+01  0.34061E+01  0.14083E+02      982.00
  0.74252E-01  0.19500E+03    0.37500E-01  0.37500E-01 -0.75000E-01  0.00000E+00  0.00000E+00  0.00000E+00    0.59634E+02  0.68751E+02 -0.12838E+03  0.61093E+01  0.28438E+01  0.15708E+02      982.00
  0.98942E-01  0.20234E+03    0.50000E-01  0.50000E-01 -0.10000E+00  0.00000E+00  0.00000E+00  0.00000E+00    0.60198E+02  0.72608E+02 -0.13281E+03  0.55310E+01  0.27471E+01  0.18519E+02      982.00
  0.12355E+00  0.21564E+03    0.62500E-01  0.62500E-01 -0.12500E+00  0.00000E+00  0.00000E+00  0.00000E+00    0.62538E+02  0.78335E+02 -0.14087E+03  0.52286E+01  0.29864E+01  0.22766E+02      982.00
  0.14805E+00  0.23416E+03    0.75000E-01  0.75000E-01 -0.15000E+00  0.00000E+00  0.00000E+00  0.00000E+00    0.66209E+02  0.85883E+02 -0.15209E+03  0.51834E+01  0.34290E+01  0.28161E+02      982.00
  0.17241E+00  0.25583E+03    0.87500E-01  0.87500E-01 -0.17500E+00  0.00000E+00  0.00000E+00  0.00000E+00    0.70559E+02  0.94664E+02 -0.16522E+03  0.53302E+01  0.40138E+01  0.33953E+02      982.00
  0.19663E+00  0.27756E+03    0.10000E+00  0.10000E+00 -0.20000E+00  0.00000E+00  0.00000E+00  0.00000E+00    0.74847E+02  0.10362E+03 -0.17847E+03  0.55777E+01  0.46700E+01  0.39143E+02      982.00
  0.22074E+00  0.29719E+03    0.11250E+00  0.11250E+00 -0.22500E+00  0.00000E+00  0.00000E+00  0.00000E+00    0.78605E+02  0.11198E+03 -0.19058E+03  0.58855E+01  0.53465E+01  0.43094E+02      982.00
  0.24479E+00  0.31367E+03    0.12500E+00  0.12500E+00 -0.25000E+00  0.00000E+00  0.00000E+00  0.00000E+00    0.81722E+02  0.11923E+03 -0.20095E+03  0.62224E+01  0.60122E+01  0.45642E+02      982.00
  0.26881E+00  0.32715E+03    0.13750E+00  0.13750E+00 -0.27500E+00  0.00000E+00  0.00000E+00  0.00000E+00    0.84313E+02  0.12533E+03 -0.20964E+03  0.65817E+01  0.66517E+01  0.46960E+02      982.00
  0.29284E+00  0.33807E+03    0.15000E+00  0.15000E+00 -0.30000E+00  0.00000E+00  0.00000E+00  0.00000E+00    0.86523E+02  0.13036E+03 -0.21689E+03  0.69614E+01  0.72607E+01  0.47269E+02      982.00
  0.31690E+00  0.34698E+03    0.16250E+00  0.16250E+00 -0.32500E+00  0.00000E+00  0.00000E+00  0.00000E+00    0.88454E+02  0.13455E+03 -0.22300E+03  0.73639E+01  0.78368E+01  0.46782E+02      982.00
  0.34100E+00  0.35448E+03    0.17500E+00  0.17500E+00 -0.35000E+00  0.00000E+00  0.00000E+00  0.00000E+00    0.90266E+02  0.13804E+03 -0.22831E+03  0.77863E+01  0.83863E+01  0.45710E+02      982.00
  0.36515E+00  0.36094E+03    0.18750E+00  0.18750E+00 -0.37500E+00  0.00000E+00  0.00000E+00  0.00000E+00    0.91992E+02  0.14104E+03 -0.23303E+03  0.82300E+01  0.89087E+01  0.44178E+02      982.00
  0.38936E+00  0.36673E+03    0.20000E+00  0.20000E+00 -0.40000E+00  0.00000E+00  0.00000E+00  0.00000E+00    0.93754E+02  0.14361E+03 -0.23736E+03  0.86886E+01  0.94105E+01  0.42321E+02      982.00
  0.41364E+00  0.37210E+03    0.21250E+00  0.21250E+00 -0.42500E+00  0.00000E+00  0.00000E+00  0.00000E+00    0.95511E+02  0.14593E+03 -0.24144E+03  0.91631E+01  0.98858E+01  0.40207E+02      982.00
  0.43797E+00  0.37719E+03    0.22500E+00  0.22500E+00 -0.45000E+00  0.00000E+00  0.00000E+00  0.00000E+00    0.97343E+02  0.14800E+03 -0.24534E+03  0.96370E+01  0.10332E+02  0.37950E+02      982.00
  0.46236E+00  0.37895E+03    0.23750E+00  0.23750E+00 -0.47500E+00  0.00000E+00  0.00000E+00  0.00000E+00    0.98551E+02  0.14852E+03 -0.24707E+03  0.97639E+01  0.10375E+02  0.35483E+02      982.00
  0.48681E+00  0.38076E+03    0.25000E+00  0.25000E+00 -0.50000E+00  0.00000E+00  0.00000E+00  0.00000E+00    0.99782E+02  0.14899E+03 -0.24877E+03  0.98674E+01  0.10405E+02  0.33154E+02      982.00
  0.51131E+00  0.38282E+03    0.26250E+00  0.26250E+00 -0.52500E+00  0.00000E+00  0.00000E+00  0.00000E+00    0.10117E+03  0.14943E+03 -0.25060E+03  0.99396E+01  0.10415E+02  0.31020E+02      982.00
  0.53586E+00  0.38503E+03    0.27500E+00  0.27500E+00 -0.55000E+00  0.00000E+00  0.00000E+00  0.00000E+00    0.10260E+03  0.14988E+03 -0.25248E+03  0.10018E+02  0.10472E+02  0.28937E+02      982.00
  0.56045E+00  0.38739E+03    0.28750E+00  0.28750E+00 -0.57500E+00  0.00000E+00  0.00000E+00  0.00000E+00    0.10411E+03  0.15031E+03 -0.25442E+03  0.10051E+02  0.10452E+02  0.27054E+02      982.00
  0.58507E+00  0.38993E+03    0.30000E+00  0.30000E+00 -0.60000E+00  0.00000E+00  0.00000E+00  0.00000E+00    0.10568E+03  0.15077E+03 -0.25645E+03  0.10093E+02  0.10477E+02  0.25227E+02      982.00
  0.60974E+00  0.39251E+03    0.31250E+00  0.31250E+00 -0.62500E+00  0.00000E+00  0.00000E+00  0.00000E+00    0.10727E+03  0.15120E+03 -0.25847E+03  0.10096E+02  0.10427E+02  0.23572E+02      982.00
  0.63443E+00  0.39516E+03    0.32500E+00  0.32500E+00 -0.65000E+00  0.00000E+00  0.00000E+00  0.00000E+00    0.10887E+03  0.15164E+03 -0.26051E+03  0.10089E+02  0.10369E+02  0.22017E+02      982.00
  0.65915E+00  0.39786E+03    0.33750E+00  0.33750E+00 -0.67500E+00  0.00000E+00  0.00000E+00  0.00000E+00    0.11047E+03  0.15209E+03 -0.26256E+03  0.10073E+02  0.10303E+02  0.20555E+02      982.00
  0.68390E+00  0.40060E+03    0.35000E+00  0.35000E+00 -0.70000E+00  0.00000E+00  0.00000E+00  0.00000E+00    0.11206E+03  0.15254E+03 -0.26460E+03  0.10050E+02  0.10230E+02  0.19182E+02      982.00
  0.70867E+00  0.40333E+03    0.36250E+00  0.36250E+00 -0.72500E+00  0.00000E+00  0.00000E+00  0.00000E+00    0.11364E+03  0.15298E+03 -0.26662E+03  0.10024E+02  0.10158E+02  0.17885E+02      982.00
  0.73346E+00  0.40609E+03    0.37500E+00  0.37500E+00 -0.75000E+00  0.00000E+00  0.00000E+00  0.00000E+00    0.11521E+03  0.15343E+03 -0.26864E+03  0.99842E+01  0.10070E+02  0.16678E+02      982.00
  0.75827E+00  0.40870E+03    0.38750E+00  0.38750E+00 -0.77500E+00  0.00000E+00  0.00000E+00  0.00000E+00    0.11668E+03  0.15386E+03 -0.27054E+03  0.99344E+01  0.99453E+01  0.15556E+02      982.00
  0.78309E+00  0.41140E+03    0.40000E+00  0.40000E+00 -0.80000E+00  0.00000E+00  0.00000E+00  0.00000E+00    0.11818E+03  0.15430E+03 -0.27249E+03  0.98821E+01  0.98529E+01  0.14491E+02      982.00
  0.80793E+00  0.41408E+03    0.41250E+00  0.41250E+00 -0.82500E+00  0.00000E+00  0.00000E+00  0.00000E+00    0.11966E+03  0.15474E+03 -0.27440E+03  0.98232E+01  0.97545E+01  0.13495E+02      982.00
  0.83278E+00  0.41670E+03    0.42500E+00  0.42500E+00 -0.85000E+00  0.00000E+00  0.00000E+00  0.00000E+00    0.12110E+03  0.15516E+03 -0.27627E+03  0.97585E+01  0.96505E+01  0.12566E+02      982.00
  0.85764E+00  0.41926E+03    0.43750E+00  0.43750E+00 -0.87500E+00  0.00000E+00  0.00000E+00  0.00000E+00    0.12251E+03  0.15558E+03 -0.27809E+03  0.96882E+01  0.95415E+01  0.11697E+02      982.00
  0.88251E+00  0.42176E+03    0.45000E+00  0.45000E+00 -0.90000E+00  0.00000E+00  0.00000E+00  0.00000E+00    0.12387E+03  0.15598E+03 -0.27985E+03  0.96130E+01  0.94280E+01  0.10887E+02      982.00
  0.90740E+00  0.42419E+03    0.46250E+00  0.46250E+00 -0.92500E+00  0.00000E+00  0.00000E+00  0.00000E+00    0.12519E+03  0.15637E+03 -0.28156E+03  0.95332E+01  0.93105E+01  0.10132E+02      982.00
  0.93229E+00  0.42654E+03    0.47500E+00  0.47500E+00 -0.95000E+00  0.00000E+00  0.00000E+00  0.00000E+00    0.12647E+03  0.15674E+03 -0.28321E+03  0.94494E+01  0.91896E+01  0.94272E+01      982.00
  0.95718E+00  0.42881E+03    0.48750E+00  0.48750E+00 -0.97500E+00  0.00000E+00  0.00000E+00  0.00000E+00    0.12770E+03  0.15709E+03 -0.28479E+03  0.93619E+01  0.90657E+01  0.87712E+01      982.00
  0.98209E+00  0.43099E+03    0.50000E+00  0.50000E+00 -0.10000E+01  0.00000E+00  0.00000E+00  0.00000E+00    0.12889E+03  0.15743E+03 -0.28631E+03  0.92713E+01  0.89393E+01  0.81604E+01      982.00
