          Evm          Svm            E11          E22          E33          E23          E13          E12         SDEV11       SDEV22       SDEV33       SDEV23       SDEV13       SDEV12      TEMP
  0.00000E+00  0.26278E+03    0.00000E+00  0.00000E+00  0.00000E+00  0.00000E+00  0.00000E+00  0.00000E+00    0.85207E+02  0.89585E+02 -0.17479E+03 -0.81261E+01  0.28059E+01 -0.50335E+01      982.00
  0.24943E-01  0.26378E+03    0.12500E-01  0.12500E-01 -0.25000E-01  0.00000E+00  0.00000E+00  0.00000E+00    0.86102E+02  0.89382E+02 -0.17548E+03 -0.78619E+01  0.39538E+01 -0.42286E+01      982.00
  0.49891E-01  0.27383E+03    0.25000E-01  0.25000E-01 -0.50000E-01  0.00000E+00  0.00000E+00  0.00000E+00    0.89688E+02  0.92504E+02 -0.18219E+03 -0.79750E+01  0.51061E+01 -0.27811E+01      982.00
  0.74841E-01  0.28878E+03    0.37500E-01  0.37500E-01 -0.75000E-01  0.00000E+00  0.00000E+00  0.00000E+00    0.94645E+02  0.97513E+02 -0.19216E+03 -0.82134E+01  0.58154E+01 -0.74267E+00      982.00
  0.99794E-01  0.30971E+03    0.50000E-01  0.50000E-01 -0.10000E+00  0.00000E+00  0.00000E+00  0.00000E+00    0.10186E+03  0.10426E+03 -0.20612E+03 -0.86818E+01  0.56244E+01  0.11413E+01      982.00
  0.12475E+00  0.33558E+03    0.62500E-01  0.62500E-01 -0.12500E+00  0.00000E+00  0.00000E+00  0.00000E+00    0.11230E+03  0.11109E+03 -0.22340E+03 -0.93718E+01  0.44429E+01  0.66246E+00      982.00
  0.14971E+00  0.34592E+03    0.75000E-01  0.75000E-01 -0.15000E+00  0.00000E+00  0.00000E+00  0.00000E+00    0.11656E+03  0.11373E+03 -0.23029E+03 -0.87011E+01  0.38308E+01  0.42257E+01      982.00
  0.17468E+00  0.34889E+03    0.87500E-01  0.87500E-01 -0.17500E+00  0.00000E+00  0.00000E+00  0.00000E+00    0.11500E+03  0.11722E+03 -0.23222E+03 -0.75795E+01  0.27109E+01  0.80201E+01      982.00
  0.19964E+00  0.36279E+03    0.10000E+00  0.10000E+00 -0.20000E+00  0.00000E+00  0.00000E+00  0.00000E+00    0.11930E+03  0.12225E+03 -0.24155E+03 -0.72558E+01  0.84748E+00  0.74841E+01      982.00
  0.22461E+00  0.38397E+03    0.11250E+00  0.11250E+00 -0.22500E+00  0.00000E+00  0.00000E+00  0.00000E+00    0.12709E+03  0.12868E+03 -0.25577E+03 -0.74878E+01 -0.73572E+00  0.48890E+01      982.00
  0.24959E+00  0.40786E+03    0.12500E+00  0.12500E+00 -0.25000E+00  0.00000E+00  0.00000E+00  0.00000E+00    0.13589E+03  0.13584E+03 -0.27173E+03 -0.81480E+01 -0.18877E+01  0.11953E+01      982.00
  0.27457E+00  0.43128E+03    0.13750E+00  0.13750E+00 -0.27500E+00  0.00000E+00  0.00000E+00  0.00000E+00    0.14431E+03  0.14299E+03 -0.28730E+03 -0.90531E+01 -0.26672E+01 -0.21725E+01      982.00
  0.29955E+00  0.45269E+03    0.15000E+00  0.15000E+00 -0.30000E+00  0.00000E+00  0.00000E+00  0.00000E+00    0.15195E+03  0.14955E+03 -0.30149E+03 -0.10081E+02 -0.31938E+01 -0.47155E+01      982.00
  0.32453E+00  0.47237E+03    0.16250E+00  0.16250E+00 -0.32500E+00  0.00000E+00  0.00000E+00  0.00000E+00    0.15901E+03  0.15553E+03 -0.31453E+03 -0.11188E+02 -0.35395E+01 -0.63250E+01      982.00
  0.34950E+00  0.48989E+03    0.17500E+00  0.17500E+00 -0.35000E+00  0.00000E+00  0.00000E+00  0.00000E+00    0.16538E+03  0.16075E+03 -0.32613E+03 -0.12285E+02 -0.37635E+01 -0.73791E+01      982.00
  0.37446E+00  0.50544E+03    0.18750E+00  0.18750E+00 -0.37500E+00  0.00000E+00  0.00000E+00  0.00000E+00    0.17114E+03  0.16529E+03 -0.33643E+03 -0.13331E+02 -0.39035E+01 -0.81611E+01      982.00
  0.39942E+00  0.51885E+03    0.20000E+00  0.20000E+00 -0.40000E+00  0.00000E+00  0.00000E+00  0.00000E+00    0.17621E+03  0.16911E+03 -0.34531E+03 -0.14229E+02 -0.39652E+01 -0.85659E+01      982.00
  0.42438E+00  0.53005E+03    0.21250E+00  0.21250E+00 -0.42500E+00  0.00000E+00  0.00000E+00  0.00000E+00    0.18052E+03  0.17221E+03 -0.35273E+03 -0.15050E+02 -0.39473E+01 -0.87548E+01      982.00
  0.44934E+00  0.53115E+03    0.22500E+00  0.22500E+00 -0.45000E+00  0.00000E+00  0.00000E+00  0.00000E+00    0.18133E+03  0.17215E+03 -0.35348E+03 -0.14697E+02 -0.37467E+01 -0.88025E+01      982.00
  0.47429E+00  0.53267E+03    0.23750E+00  0.23750E+00 -0.47500E+00  0.00000E+00  0.00000E+00  0.00000E+00    0.18222E+03  0.17229E+03 -0.35451E+03 -0.14435E+02 -0.35635E+01 -0.87754E+01      982.00
  0.49925E+00  0.53411E+03    0.25000E+00  0.25000E+00 -0.50000E+00  0.00000E+00  0.00000E+00  0.00000E+00    0.18302E+03  0.17245E+03 -0.35547E+03 -0.14281E+02 -0.34324E+01 -0.87346E+01      982.00
  0.52421E+00  0.53515E+03    0.26250E+00  0.26250E+00 -0.52500E+00  0.00000E+00  0.00000E+00  0.00000E+00    0.18364E+03  0.17254E+03 -0.35618E+03 -0.14104E+02 -0.32955E+01 -0.86435E+01      982.00
  0.54917E+00  0.53603E+03    0.27500E+00  0.27500E+00 -0.55000E+00  0.00000E+00  0.00000E+00  0.00000E+00    0.18417E+03  0.17261E+03 -0.35678E+03 -0.13935E+02 -0.31681E+01 -0.85531E+01      982.00
  0.57413E+00  0.53662E+03    0.28750E+00  0.28750E+00 -0.57500E+00  0.00000E+00  0.00000E+00  0.00000E+00    0.18453E+03  0.17265E+03 -0.35718E+03 -0.13734E+02 -0.30416E+01 -0.84949E+01      982.00
  0.59909E+00  0.53718E+03    0.30000E+00  0.30000E+00 -0.60000E+00  0.00000E+00  0.00000E+00  0.00000E+00    0.18489E+03  0.17267E+03 -0.35756E+03 -0.13588E+02 -0.29319E+01 -0.84113E+01      982.00
  0.62405E+00  0.53761E+03    0.31250E+00  0.31250E+00 -0.62500E+00  0.00000E+00  0.00000E+00  0.00000E+00    0.18518E+03  0.17267E+03 -0.35785E+03 -0.13447E+02 -0.28275E+01 -0.83273E+01      982.00
  0.64901E+00  0.53789E+03    0.32500E+00  0.32500E+00 -0.65000E+00  0.00000E+00  0.00000E+00  0.00000E+00    0.18540E+03  0.17265E+03 -0.35805E+03 -0.13308E+02 -0.27273E+01 -0.82459E+01      982.00
  0.67397E+00  0.53835E+03    0.33750E+00  0.33750E+00 -0.67500E+00  0.00000E+00  0.00000E+00  0.00000E+00    0.18571E+03  0.17265E+03 -0.35836E+03 -0.13246E+02 -0.26719E+01 -0.80911E+01      982.00
  0.69893E+00  0.53834E+03    0.35000E+00  0.35000E+00 -0.70000E+00  0.00000E+00  0.00000E+00  0.00000E+00    0.18576E+03  0.17261E+03 -0.35837E+03 -0.13040E+02 -0.25337E+01 -0.79751E+01      982.00
  0.72390E+00  0.53817E+03    0.36250E+00  0.36250E+00 -0.72500E+00  0.00000E+00  0.00000E+00  0.00000E+00    0.18575E+03  0.17251E+03 -0.35826E+03 -0.12909E+02 -0.24432E+01 -0.79132E+01      982.00
  0.74886E+00  0.53788E+03    0.37500E+00  0.37500E+00 -0.75000E+00  0.00000E+00  0.00000E+00  0.00000E+00    0.18572E+03  0.17235E+03 -0.35808E+03 -0.12718E+02 -0.23081E+01 -0.78231E+01      982.00
  0.77382E+00  0.53757E+03    0.38750E+00  0.38750E+00 -0.77500E+00  0.00000E+00  0.00000E+00  0.00000E+00    0.18561E+03  0.17227E+03 -0.35788E+03 -0.12657E+02 -0.22754E+01 -0.78019E+01      982.00
  0.79879E+00  0.53719E+03    0.40000E+00  0.40000E+00 -0.80000E+00  0.00000E+00  0.00000E+00  0.00000E+00    0.18549E+03  0.17214E+03 -0.35763E+03 -0.12528E+02 -0.21870E+01 -0.77541E+01      982.00
  0.82375E+00  0.53687E+03    0.41250E+00  0.41250E+00 -0.82500E+00  0.00000E+00  0.00000E+00  0.00000E+00    0.18536E+03  0.17206E+03 -0.35742E+03 -0.12433E+02 -0.21177E+01 -0.77550E+01      982.00
  0.84872E+00  0.53639E+03    0.42500E+00  0.42500E+00 -0.85000E+00  0.00000E+00  0.00000E+00  0.00000E+00    0.18518E+03  0.17193E+03 -0.35711E+03 -0.12315E+02 -0.20386E+01 -0.77099E+01      982.00
  0.87369E+00  0.53584E+03    0.43750E+00  0.43750E+00 -0.87500E+00  0.00000E+00  0.00000E+00  0.00000E+00    0.18497E+03  0.17178E+03 -0.35675E+03 -0.12199E+02 -0.19619E+01 -0.76648E+01      982.00
  0.89865E+00  0.53544E+03    0.45000E+00  0.45000E+00 -0.90000E+00  0.00000E+00  0.00000E+00  0.00000E+00    0.18480E+03  0.17169E+03 -0.35649E+03 -0.12098E+02 -0.18859E+01 -0.76531E+01      982.00
  0.92362E+00  0.53481E+03    0.46250E+00  0.46250E+00 -0.92500E+00  0.00000E+00  0.00000E+00  0.00000E+00    0.18454E+03  0.17154E+03 -0.35608E+03 -0.11991E+02 -0.18134E+01 -0.76108E+01      982.00
  0.94859E+00  0.53414E+03    0.47500E+00  0.47500E+00 -0.95000E+00  0.00000E+00  0.00000E+00  0.00000E+00    0.18426E+03  0.17137E+03 -0.35563E+03 -0.11886E+02 -0.17431E+01 -0.75713E+01      982.00
  0.97356E+00  0.53349E+03    0.48750E+00  0.48750E+00 -0.97500E+00  0.00000E+00  0.00000E+00  0.00000E+00    0.18398E+03  0.17123E+03 -0.35521E+03 -0.11785E+02 -0.16827E+01 -0.75655E+01      982.00
  0.99852E+00  0.53274E+03    0.50000E+00  0.50000E+00 -0.10000E+01  0.00000E+00  0.00000E+00  0.00000E+00    0.18366E+03  0.17106E+03 -0.35472E+03 -0.11684E+02 -0.16159E+01 -0.75278E+01      982.00
