          Evm          Svm            E11          E22          E33          E23          E13          E12         SDEV11       SDEV22       SDEV33       SDEV23       SDEV13       SDEV12      TEMP
  0.00000E+00  0.14085E+03    0.00000E+00  0.00000E+00  0.00000E+00  0.00000E+00  0.00000E+00  0.00000E+00    0.51537E+02  0.38712E+02 -0.90249E+02 -0.56830E+01 -0.12076E+02  0.16883E+02      982.00
  0.24028E-01  0.14301E+03    0.12500E-01  0.12500E-01 -0.25000E-01  0.00000E+00  0.00000E+00  0.00000E+00    0.51635E+02  0.39539E+02 -0.91174E+02 -0.51825E+01 -0.11910E+02  0.19435E+02      982.00
  0.47935E-01  0.15162E+03    0.25000E-01  0.25000E-01 -0.50000E-01  0.00000E+00  0.00000E+00  0.00000E+00    0.53100E+02  0.42343E+02 -0.95443E+02 -0.50261E+01 -0.12107E+02  0.25097E+02      982.00
  0.71541E-01  0.17101E+03    0.37500E-01  0.37500E-01 -0.75000E-01  0.00000E+00  0.00000E+00  0.00000E+00    0.56529E+02  0.48213E+02 -0.10474E+03 -0.52146E+01 -0.12750E+02  0.36228E+02      982.00
  0.94510E-01  0.20859E+03    0.50000E-01  0.50000E-01 -0.10000E+00  0.00000E+00  0.00000E+00  0.00000E+00    0.62665E+02  0.58855E+02 -0.12152E+03 -0.57408E+01 -0.13969E+02  0.56533E+02      982.00
  0.11636E+00  0.26170E+03    0.62500E-01  0.62500E-01 -0.12500E+00  0.00000E+00  0.00000E+00  0.00000E+00    0.69992E+02  0.73601E+02 -0.14359E+03 -0.61686E+01 -0.15314E+02  0.84196E+02      982.00
  0.13693E+00  0.30929E+03    0.75000E-01  0.75000E-01 -0.15000E+00  0.00000E+00  0.00000E+00  0.00000E+00    0.75078E+02  0.87399E+02 -0.16248E+03 -0.63225E+01 -0.16154E+02  0.10839E+03      982.00
  0.15663E+00  0.35631E+03    0.87500E-01  0.87500E-01 -0.17500E+00  0.00000E+00  0.00000E+00  0.00000E+00    0.80034E+02  0.10076E+03 -0.18079E+03 -0.67544E+01 -0.16988E+02  0.13176E+03      982.00
  0.17566E+00  0.40073E+03    0.10000E+00  0.10000E+00 -0.20000E+00  0.00000E+00  0.00000E+00  0.00000E+00    0.85053E+02  0.11300E+03 -0.19806E+03 -0.73497E+01 -0.17673E+02  0.15345E+03      982.00
  0.19419E+00  0.43805E+03    0.11250E+00  0.11250E+00 -0.22500E+00  0.00000E+00  0.00000E+00  0.00000E+00    0.89711E+02  0.12301E+03 -0.21273E+03 -0.81499E+01 -0.18169E+02  0.17132E+03      982.00
  0.21241E+00  0.45724E+03    0.12500E+00  0.12500E+00 -0.25000E+00  0.00000E+00  0.00000E+00  0.00000E+00    0.93782E+02  0.12628E+03 -0.22006E+03 -0.85939E+01 -0.18460E+02  0.18080E+03      982.00
  0.23045E+00  0.46590E+03    0.13750E+00  0.13750E+00 -0.27500E+00  0.00000E+00  0.00000E+00  0.00000E+00    0.96679E+02  0.12623E+03 -0.22291E+03 -0.86234E+01 -0.18315E+02  0.18563E+03      982.00
  0.24840E+00  0.47371E+03    0.15000E+00  0.15000E+00 -0.30000E+00  0.00000E+00  0.00000E+00  0.00000E+00    0.99313E+02  0.12623E+03 -0.22555E+03 -0.91095E+01 -0.18141E+02  0.18988E+03      982.00
  0.26625E+00  0.48224E+03    0.16250E+00  0.16250E+00 -0.32500E+00  0.00000E+00  0.00000E+00  0.00000E+00    0.10105E+03  0.12749E+03 -0.22854E+03 -0.97411E+01 -0.17802E+02  0.19431E+03      982.00
  0.28402E+00  0.49178E+03    0.17500E+00  0.17500E+00 -0.35000E+00  0.00000E+00  0.00000E+00  0.00000E+00    0.10244E+03  0.12947E+03 -0.23192E+03 -0.10376E+02 -0.17394E+02  0.19921E+03      982.00
  0.30171E+00  0.50156E+03    0.18750E+00  0.18750E+00 -0.37500E+00  0.00000E+00  0.00000E+00  0.00000E+00    0.10386E+03  0.13162E+03 -0.23548E+03 -0.11059E+02 -0.17002E+02  0.20411E+03      982.00
  0.31931E+00  0.51028E+03    0.20000E+00  0.20000E+00 -0.40000E+00  0.00000E+00  0.00000E+00  0.00000E+00    0.10510E+03  0.13356E+03 -0.23866E+03 -0.11642E+02 -0.16601E+02  0.20848E+03      982.00
  0.33685E+00  0.51849E+03    0.21250E+00  0.21250E+00 -0.42500E+00  0.00000E+00  0.00000E+00  0.00000E+00    0.10612E+03  0.13545E+03 -0.24157E+03 -0.12089E+02 -0.16223E+02  0.21265E+03      982.00
  0.35432E+00  0.52617E+03    0.22500E+00  0.22500E+00 -0.45000E+00  0.00000E+00  0.00000E+00  0.00000E+00    0.10689E+03  0.13731E+03 -0.24420E+03 -0.12406E+02 -0.15867E+02  0.21662E+03      982.00
  0.37173E+00  0.53283E+03    0.23750E+00  0.23750E+00 -0.47500E+00  0.00000E+00  0.00000E+00  0.00000E+00    0.10744E+03  0.13899E+03 -0.24642E+03 -0.12667E+02 -0.15495E+02  0.22010E+03      982.00
  0.38907E+00  0.53875E+03    0.25000E+00  0.25000E+00 -0.50000E+00  0.00000E+00  0.00000E+00  0.00000E+00    0.10773E+03  0.14058E+03 -0.24831E+03 -0.12848E+02 -0.15119E+02  0.22326E+03      982.00
  0.40635E+00  0.54394E+03    0.26250E+00  0.26250E+00 -0.52500E+00  0.00000E+00  0.00000E+00  0.00000E+00    0.10777E+03  0.14210E+03 -0.24987E+03 -0.12984E+02 -0.14720E+02  0.22609E+03      982.00
  0.42358E+00  0.54845E+03    0.27500E+00  0.27500E+00 -0.55000E+00  0.00000E+00  0.00000E+00  0.00000E+00    0.10770E+03  0.14345E+03 -0.25115E+03 -0.13083E+02 -0.14306E+02  0.22861E+03      982.00
  0.44075E+00  0.54920E+03    0.28750E+00  0.28750E+00 -0.57500E+00  0.00000E+00  0.00000E+00  0.00000E+00    0.10676E+03  0.14413E+03 -0.25089E+03 -0.13009E+02 -0.13833E+02  0.22940E+03      982.00
  0.45788E+00  0.54995E+03    0.30000E+00  0.30000E+00 -0.60000E+00  0.00000E+00  0.00000E+00  0.00000E+00    0.10588E+03  0.14476E+03 -0.25065E+03 -0.12933E+02 -0.13357E+02  0.23016E+03      982.00
  0.47497E+00  0.55065E+03    0.31250E+00  0.31250E+00 -0.62500E+00  0.00000E+00  0.00000E+00  0.00000E+00    0.10507E+03  0.14534E+03 -0.25041E+03 -0.12843E+02 -0.12884E+02  0.23088E+03      982.00
  0.49203E+00  0.55129E+03    0.32500E+00  0.32500E+00 -0.65000E+00  0.00000E+00  0.00000E+00  0.00000E+00    0.10430E+03  0.14589E+03 -0.25019E+03 -0.12731E+02 -0.12418E+02  0.23155E+03      982.00
  0.50905E+00  0.55192E+03    0.33750E+00  0.33750E+00 -0.67500E+00  0.00000E+00  0.00000E+00  0.00000E+00    0.10359E+03  0.14639E+03 -0.24997E+03 -0.12598E+02 -0.11974E+02  0.23219E+03      982.00
  0.52603E+00  0.55250E+03    0.35000E+00  0.35000E+00 -0.70000E+00  0.00000E+00  0.00000E+00  0.00000E+00    0.10295E+03  0.14683E+03 -0.24977E+03 -0.12438E+02 -0.11549E+02  0.23280E+03      982.00
  0.54298E+00  0.55294E+03    0.36250E+00  0.36250E+00 -0.72500E+00  0.00000E+00  0.00000E+00  0.00000E+00    0.10248E+03  0.14707E+03 -0.24955E+03 -0.12253E+02 -0.11144E+02  0.23332E+03      982.00
  0.55991E+00  0.55342E+03    0.37500E+00  0.37500E+00 -0.75000E+00  0.00000E+00  0.00000E+00  0.00000E+00    0.10202E+03  0.14734E+03 -0.24936E+03 -0.12034E+02 -0.10763E+02  0.23384E+03      982.00
  0.57680E+00  0.55387E+03    0.38750E+00  0.38750E+00 -0.77500E+00  0.00000E+00  0.00000E+00  0.00000E+00    0.10160E+03  0.14757E+03 -0.24917E+03 -0.11781E+02 -0.10399E+02  0.23434E+03      982.00
  0.59367E+00  0.55415E+03    0.40000E+00  0.40000E+00 -0.80000E+00  0.00000E+00  0.00000E+00  0.00000E+00    0.10141E+03  0.14755E+03 -0.24895E+03 -0.11525E+02 -0.10075E+02  0.23476E+03      982.00
  0.61052E+00  0.55452E+03    0.41250E+00  0.41250E+00 -0.82500E+00  0.00000E+00  0.00000E+00  0.00000E+00    0.10114E+03  0.14763E+03 -0.24877E+03 -0.11194E+02 -0.97371E+01  0.23521E+03      982.00
  0.62734E+00  0.55475E+03    0.42500E+00  0.42500E+00 -0.85000E+00  0.00000E+00  0.00000E+00  0.00000E+00    0.10107E+03  0.14749E+03 -0.24856E+03 -0.10909E+02 -0.94643E+01  0.23558E+03      982.00
  0.64415E+00  0.55496E+03    0.43750E+00  0.43750E+00 -0.87500E+00  0.00000E+00  0.00000E+00  0.00000E+00    0.10103E+03  0.14733E+03 -0.24836E+03 -0.10615E+02 -0.92115E+01  0.23593E+03      982.00
  0.66093E+00  0.55516E+03    0.45000E+00  0.45000E+00 -0.90000E+00  0.00000E+00  0.00000E+00  0.00000E+00    0.10100E+03  0.14716E+03 -0.24816E+03 -0.10313E+02 -0.89756E+01  0.23627E+03      982.00
  0.67769E+00  0.55547E+03    0.46250E+00  0.46250E+00 -0.92500E+00  0.00000E+00  0.00000E+00  0.00000E+00    0.10089E+03  0.14712E+03 -0.24801E+03 -0.99797E+01 -0.87464E+01  0.23666E+03      982.00
  0.69444E+00  0.55565E+03    0.47500E+00  0.47500E+00 -0.95000E+00  0.00000E+00  0.00000E+00  0.00000E+00    0.10091E+03  0.14692E+03 -0.24783E+03 -0.96714E+01 -0.85408E+01  0.23697E+03      982.00
  0.71116E+00  0.55582E+03    0.48750E+00  0.48750E+00 -0.97500E+00  0.00000E+00  0.00000E+00  0.00000E+00    0.10094E+03  0.14673E+03 -0.24767E+03 -0.93635E+01 -0.83463E+01  0.23726E+03      982.00
  0.72787E+00  0.55575E+03    0.50000E+00  0.50000E+00 -0.10000E+01  0.00000E+00  0.00000E+00  0.00000E+00    0.10106E+03  0.14640E+03 -0.24746E+03 -0.91499E+01 -0.81933E+01  0.23741E+03      982.00
