          Evm          Svm            E11          E22          E33          E23          E13          E12         SDEV11       SDEV22       SDEV33       SDEV23       SDEV13       SDEV12      TEMP
  0.00000E+00  0.15477E+03    0.00000E+00  0.00000E+00  0.00000E+00  0.00000E+00  0.00000E+00  0.00000E+00    0.45530E+02  0.53737E+02 -0.99267E+02  0.80723E+01  0.83247E+01  0.21053E+02      982.00
  0.24051E-01  0.16361E+03    0.12500E-01  0.12500E-01 -0.25000E-01  0.00000E+00  0.00000E+00  0.00000E+00    0.51436E+02  0.52363E+02 -0.10380E+03  0.84701E+01  0.77025E+01  0.26655E+02      982.00
  0.47843E-01  0.17421E+03    0.25000E-01  0.25000E-01 -0.50000E-01  0.00000E+00  0.00000E+00  0.00000E+00    0.59743E+02  0.49125E+02 -0.10887E+03  0.87798E+01  0.60548E+01  0.32947E+02      982.00
  0.71277E-01  0.17797E+03    0.37500E-01  0.37500E-01 -0.75000E-01  0.00000E+00  0.00000E+00  0.00000E+00    0.63605E+02  0.46581E+02 -0.11019E+03  0.88708E+01  0.46673E+01  0.35756E+02      982.00
  0.94495E-01  0.18495E+03    0.50000E-01  0.50000E-01 -0.10000E+00  0.00000E+00  0.00000E+00  0.00000E+00    0.67040E+02  0.46079E+02 -0.11312E+03  0.91768E+01  0.48647E+01  0.39842E+02      982.00
  0.11743E+00  0.19866E+03    0.62500E-01  0.62500E-01 -0.12500E+00  0.00000E+00  0.00000E+00  0.00000E+00    0.72312E+02  0.46878E+02 -0.11919E+03  0.97154E+01  0.57783E+01  0.47018E+02      982.00
  0.13993E+00  0.21984E+03    0.75000E-01  0.75000E-01 -0.15000E+00  0.00000E+00  0.00000E+00  0.00000E+00    0.79687E+02  0.48909E+02 -0.12860E+03  0.10485E+02  0.71431E+01  0.57531E+02      982.00
  0.16187E+00  0.24942E+03    0.87500E-01  0.87500E-01 -0.17500E+00  0.00000E+00  0.00000E+00  0.00000E+00    0.89463E+02  0.52087E+02 -0.14155E+03  0.11461E+02  0.87733E+01  0.71775E+02      982.00
  0.18315E+00  0.28670E+03    0.10000E+00  0.10000E+00 -0.20000E+00  0.00000E+00  0.00000E+00  0.00000E+00    0.10125E+03  0.56330E+02 -0.15758E+03  0.12547E+02  0.10459E+02  0.89460E+02      982.00
  0.20376E+00  0.32613E+03    0.11250E+00  0.11250E+00 -0.22500E+00  0.00000E+00  0.00000E+00  0.00000E+00    0.11310E+03  0.61271E+02 -0.17437E+03  0.13440E+02  0.11919E+02  0.10796E+03      982.00
  0.22381E+00  0.36274E+03    0.12500E+00  0.12500E+00 -0.25000E+00  0.00000E+00  0.00000E+00  0.00000E+00    0.12342E+03  0.66423E+02 -0.18985E+03  0.14019E+02  0.12916E+02  0.12512E+03      982.00
  0.24344E+00  0.39285E+03    0.13750E+00  0.13750E+00 -0.27500E+00  0.00000E+00  0.00000E+00  0.00000E+00    0.13133E+03  0.71269E+02 -0.20260E+03  0.14236E+02  0.13471E+02  0.13919E+03      982.00
  0.26277E+00  0.41652E+03    0.15000E+00  0.15000E+00 -0.30000E+00  0.00000E+00  0.00000E+00  0.00000E+00    0.13721E+03  0.75480E+02 -0.21269E+03  0.14178E+02  0.13691E+02  0.15020E+03      982.00
  0.28192E+00  0.43478E+03    0.16250E+00  0.16250E+00 -0.32500E+00  0.00000E+00  0.00000E+00  0.00000E+00    0.14153E+03  0.79035E+02 -0.22056E+03  0.13936E+02  0.13689E+02  0.15865E+03      982.00
  0.30095E+00  0.44901E+03    0.17500E+00  0.17500E+00 -0.35000E+00  0.00000E+00  0.00000E+00  0.00000E+00    0.14482E+03  0.81940E+02 -0.22676E+03  0.13581E+02  0.13536E+02  0.16518E+03      982.00
  0.31989E+00  0.46013E+03    0.18750E+00  0.18750E+00 -0.37500E+00  0.00000E+00  0.00000E+00  0.00000E+00    0.14733E+03  0.84337E+02 -0.23166E+03  0.13159E+02  0.13286E+02  0.17024E+03      982.00
  0.33877E+00  0.46894E+03    0.20000E+00  0.20000E+00 -0.40000E+00  0.00000E+00  0.00000E+00  0.00000E+00    0.14935E+03  0.86270E+02 -0.23562E+03  0.12696E+02  0.12967E+02  0.17419E+03      982.00
  0.35761E+00  0.47598E+03    0.21250E+00  0.21250E+00 -0.42500E+00  0.00000E+00  0.00000E+00  0.00000E+00    0.15098E+03  0.87856E+02 -0.23883E+03  0.12210E+02  0.12602E+02  0.17730E+03      982.00
  0.37642E+00  0.48164E+03    0.22500E+00  0.22500E+00 -0.45000E+00  0.00000E+00  0.00000E+00  0.00000E+00    0.15232E+03  0.89158E+02 -0.24148E+03  0.11713E+02  0.12206E+02  0.17974E+03      982.00
  0.39523E+00  0.48617E+03    0.23750E+00  0.23750E+00 -0.47500E+00  0.00000E+00  0.00000E+00  0.00000E+00    0.15341E+03  0.90269E+02 -0.24368E+03  0.11212E+02  0.11793E+02  0.18164E+03      982.00
  0.41402E+00  0.48987E+03    0.25000E+00  0.25000E+00 -0.50000E+00  0.00000E+00  0.00000E+00  0.00000E+00    0.15437E+03  0.91167E+02 -0.24553E+03  0.10709E+02  0.11357E+02  0.18312E+03      982.00
  0.43282E+00  0.48907E+03    0.26250E+00  0.26250E+00 -0.52500E+00  0.00000E+00  0.00000E+00  0.00000E+00    0.15470E+03  0.90721E+02 -0.24542E+03  0.10240E+02  0.10857E+02  0.18251E+03      982.00
  0.45163E+00  0.48814E+03    0.27500E+00  0.27500E+00 -0.55000E+00  0.00000E+00  0.00000E+00  0.00000E+00    0.15475E+03  0.90522E+02 -0.24528E+03  0.97732E+01  0.10377E+02  0.18186E+03      982.00
  0.47048E+00  0.48736E+03    0.28750E+00  0.28750E+00 -0.57500E+00  0.00000E+00  0.00000E+00  0.00000E+00    0.15472E+03  0.90494E+02 -0.24521E+03  0.93761E+01  0.99458E+01  0.18127E+03      982.00
  0.48934E+00  0.48636E+03    0.30000E+00  0.30000E+00 -0.60000E+00  0.00000E+00  0.00000E+00  0.00000E+00    0.15462E+03  0.90457E+02 -0.24508E+03  0.89516E+01  0.95147E+01  0.18056E+03      982.00
  0.50824E+00  0.48511E+03    0.31250E+00  0.31250E+00 -0.62500E+00  0.00000E+00  0.00000E+00  0.00000E+00    0.15443E+03  0.90422E+02 -0.24486E+03  0.85588E+01  0.91326E+01  0.17971E+03      982.00
  0.52717E+00  0.48387E+03    0.32500E+00  0.32500E+00 -0.65000E+00  0.00000E+00  0.00000E+00  0.00000E+00    0.15425E+03  0.90422E+02 -0.24468E+03  0.81451E+01  0.87199E+01  0.17884E+03      982.00
  0.54613E+00  0.48282E+03    0.33750E+00  0.33750E+00 -0.67500E+00  0.00000E+00  0.00000E+00  0.00000E+00    0.15410E+03  0.90497E+02 -0.24460E+03  0.77322E+01  0.82917E+01  0.17803E+03      982.00
  0.56513E+00  0.48132E+03    0.35000E+00  0.35000E+00 -0.70000E+00  0.00000E+00  0.00000E+00  0.00000E+00    0.15384E+03  0.90531E+02 -0.24437E+03  0.73314E+01  0.78963E+01  0.17696E+03      982.00
  0.58417E+00  0.47965E+03    0.36250E+00  0.36250E+00 -0.72500E+00  0.00000E+00  0.00000E+00  0.00000E+00    0.15354E+03  0.90576E+02 -0.24411E+03  0.69348E+01  0.75072E+01  0.17578E+03      982.00
  0.60325E+00  0.47781E+03    0.37500E+00  0.37500E+00 -0.75000E+00  0.00000E+00  0.00000E+00  0.00000E+00    0.15319E+03  0.90634E+02 -0.24382E+03  0.65423E+01  0.71239E+01  0.17448E+03      982.00
  0.62239E+00  0.47594E+03    0.38750E+00  0.38750E+00 -0.77500E+00  0.00000E+00  0.00000E+00  0.00000E+00    0.15284E+03  0.90727E+02 -0.24357E+03  0.61567E+01  0.67282E+01  0.17310E+03      982.00
  0.64158E+00  0.47370E+03    0.40000E+00  0.40000E+00 -0.80000E+00  0.00000E+00  0.00000E+00  0.00000E+00    0.15238E+03  0.90810E+02 -0.24319E+03  0.57728E+01  0.63547E+01  0.17152E+03      982.00
  0.66083E+00  0.47124E+03    0.41250E+00  0.41250E+00 -0.82500E+00  0.00000E+00  0.00000E+00  0.00000E+00    0.15187E+03  0.90905E+02 -0.24277E+03  0.53927E+01  0.59867E+01  0.16978E+03      982.00
  0.68015E+00  0.46854E+03    0.42500E+00  0.42500E+00 -0.85000E+00  0.00000E+00  0.00000E+00  0.00000E+00    0.15128E+03  0.91012E+02 -0.24230E+03  0.50170E+01  0.56250E+01  0.16787E+03      982.00
  0.69954E+00  0.46557E+03    0.43750E+00  0.43750E+00 -0.87500E+00  0.00000E+00  0.00000E+00  0.00000E+00    0.15064E+03  0.91129E+02 -0.24176E+03  0.46465E+01  0.52710E+01  0.16577E+03      982.00
  0.71902E+00  0.46233E+03    0.45000E+00  0.45000E+00 -0.90000E+00  0.00000E+00  0.00000E+00  0.00000E+00    0.14991E+03  0.91255E+02 -0.24117E+03  0.42824E+01  0.49261E+01  0.16348E+03      982.00
  0.73858E+00  0.45881E+03    0.46250E+00  0.46250E+00 -0.92500E+00  0.00000E+00  0.00000E+00  0.00000E+00    0.14912E+03  0.91390E+02 -0.24051E+03  0.39263E+01  0.45928E+01  0.16098E+03      982.00
  0.75824E+00  0.45493E+03    0.47500E+00  0.47500E+00 -0.95000E+00  0.00000E+00  0.00000E+00  0.00000E+00    0.14826E+03  0.91491E+02 -0.23975E+03  0.35714E+01  0.42751E+01  0.15824E+03      982.00
  0.77800E+00  0.45083E+03    0.48750E+00  0.48750E+00 -0.97500E+00  0.00000E+00  0.00000E+00  0.00000E+00    0.14732E+03  0.91639E+02 -0.23896E+03  0.32379E+01  0.39729E+01  0.15531E+03      982.00
  0.79788E+00  0.44661E+03    0.50000E+00  0.50000E+00 -0.10000E+01  0.00000E+00  0.00000E+00  0.00000E+00    0.14637E+03  0.91797E+02 -0.23817E+03  0.29220E+01  0.36618E+01  0.15224E+03      982.00
