          Evm          Svm            E11          E22          E33          E23          E13          E12         SDEV11       SDEV22       SDEV33       SDEV23       SDEV13       SDEV12      TEMP
  0.00000E+00  0.14312E+03    0.00000E+00  0.00000E+00  0.00000E+00  0.00000E+00  0.00000E+00  0.00000E+00    0.48493E+02  0.41539E+02 -0.90032E+02 -0.54104E+00 -0.48522E+00  0.27125E+02      982.00
  0.23590E-01  0.14574E+03    0.12500E-01  0.12500E-01 -0.25000E-01  0.00000E+00  0.00000E+00  0.00000E+00    0.48929E+02  0.42025E+02 -0.90954E+02 -0.40108E+00 -0.55738E+00  0.29386E+02      982.00
  0.46993E-01  0.15132E+03    0.25000E-01  0.25000E-01 -0.50000E-01  0.00000E+00  0.00000E+00  0.00000E+00    0.50371E+02  0.43021E+02 -0.93392E+02 -0.32733E+00 -0.92658E+00  0.32808E+02      982.00
  0.70137E-01  0.16000E+03    0.37500E-01  0.37500E-01 -0.75000E-01  0.00000E+00  0.00000E+00  0.00000E+00    0.52968E+02  0.44284E+02 -0.97252E+02 -0.35570E+00 -0.14794E+01  0.37664E+02      982.00
  0.92931E-01  0.17034E+03    0.50000E-01  0.50000E-01 -0.10000E+00  0.00000E+00  0.00000E+00  0.00000E+00    0.56428E+02  0.45318E+02 -0.10175E+03 -0.40804E+00 -0.20986E+01  0.43264E+02      982.00
  0.11533E+00  0.18397E+03    0.62500E-01  0.62500E-01 -0.12500E+00  0.00000E+00  0.00000E+00  0.00000E+00    0.60935E+02  0.46495E+02 -0.10743E+03 -0.69606E+00 -0.25675E+01  0.50661E+02      982.00
  0.13723E+00  0.20386E+03    0.75000E-01  0.75000E-01 -0.15000E+00  0.00000E+00  0.00000E+00  0.00000E+00    0.67017E+02  0.48403E+02 -0.11542E+03 -0.12243E+01 -0.29501E+01  0.61354E+02      982.00
  0.15846E+00  0.23301E+03    0.87500E-01  0.87500E-01 -0.17500E+00  0.00000E+00  0.00000E+00  0.00000E+00    0.75344E+02  0.51399E+02 -0.12674E+03 -0.19245E+01 -0.33412E+01  0.76757E+02      982.00
  0.17886E+00  0.27287E+03    0.10000E+00  0.10000E+00 -0.20000E+00  0.00000E+00  0.00000E+00  0.00000E+00    0.86177E+02  0.55599E+02 -0.14178E+03 -0.26942E+01 -0.38429E+01  0.97410E+02      982.00
  0.19834E+00  0.32149E+03    0.11250E+00  0.11250E+00 -0.22500E+00  0.00000E+00  0.00000E+00  0.00000E+00    0.98922E+02  0.60758E+02 -0.15968E+03 -0.34636E+01 -0.44250E+01  0.12220E+03      982.00
  0.21697E+00  0.36967E+03    0.12500E+00  0.12500E+00 -0.25000E+00  0.00000E+00  0.00000E+00  0.00000E+00    0.11131E+03  0.65929E+02 -0.17724E+03 -0.40345E+01 -0.50410E+01  0.14640E+03      982.00
  0.23495E+00  0.41149E+03    0.13750E+00  0.13750E+00 -0.27500E+00  0.00000E+00  0.00000E+00  0.00000E+00    0.12180E+03  0.70589E+02 -0.19239E+03 -0.44335E+01 -0.55292E+01  0.16726E+03      982.00
  0.25248E+00  0.44414E+03    0.15000E+00  0.15000E+00 -0.30000E+00  0.00000E+00  0.00000E+00  0.00000E+00    0.12986E+03  0.74375E+02 -0.20424E+03 -0.46316E+01 -0.59073E+01  0.18342E+03      982.00
  0.26973E+00  0.46890E+03    0.16250E+00  0.16250E+00 -0.32500E+00  0.00000E+00  0.00000E+00  0.00000E+00    0.13589E+03  0.77374E+02 -0.21327E+03 -0.46818E+01 -0.61955E+01  0.19560E+03      982.00
  0.28678E+00  0.48776E+03    0.17500E+00  0.17500E+00 -0.35000E+00  0.00000E+00  0.00000E+00  0.00000E+00    0.14043E+03  0.79741E+02 -0.22017E+03 -0.46357E+01 -0.64071E+01  0.20485E+03      982.00
  0.30371E+00  0.50234E+03    0.18750E+00  0.18750E+00 -0.37500E+00  0.00000E+00  0.00000E+00  0.00000E+00    0.14390E+03  0.81635E+02 -0.22553E+03 -0.45336E+01 -0.65531E+01  0.21197E+03      982.00
  0.32054E+00  0.51427E+03    0.20000E+00  0.20000E+00 -0.40000E+00  0.00000E+00  0.00000E+00  0.00000E+00    0.14667E+03  0.83240E+02 -0.22991E+03 -0.44062E+01 -0.66321E+01  0.21782E+03      982.00
  0.33731E+00  0.52304E+03    0.21250E+00  0.21250E+00 -0.42500E+00  0.00000E+00  0.00000E+00  0.00000E+00    0.14871E+03  0.84447E+02 -0.23316E+03 -0.42573E+01 -0.66782E+01  0.22209E+03      982.00
  0.35403E+00  0.53078E+03    0.22500E+00  0.22500E+00 -0.45000E+00  0.00000E+00  0.00000E+00  0.00000E+00    0.15044E+03  0.85553E+02 -0.23600E+03 -0.41088E+01 -0.66730E+01  0.22588E+03      982.00
  0.37070E+00  0.53680E+03    0.23750E+00  0.23750E+00 -0.47500E+00  0.00000E+00  0.00000E+00  0.00000E+00    0.15178E+03  0.86429E+02 -0.23821E+03 -0.39667E+01 -0.66271E+01  0.22883E+03      982.00
  0.38734E+00  0.54204E+03    0.25000E+00  0.25000E+00 -0.50000E+00  0.00000E+00  0.00000E+00  0.00000E+00    0.15293E+03  0.87211E+02 -0.24014E+03 -0.38136E+01 -0.65631E+01  0.23140E+03      982.00
  0.40395E+00  0.54637E+03    0.26250E+00  0.26250E+00 -0.52500E+00  0.00000E+00  0.00000E+00  0.00000E+00    0.15389E+03  0.87820E+02 -0.24171E+03 -0.36878E+01 -0.64568E+01  0.23354E+03      982.00
  0.42054E+00  0.55018E+03    0.27500E+00  0.27500E+00 -0.55000E+00  0.00000E+00  0.00000E+00  0.00000E+00    0.15471E+03  0.88385E+02 -0.24309E+03 -0.35619E+01 -0.63369E+01  0.23543E+03      982.00
  0.43711E+00  0.55063E+03    0.28750E+00  0.28750E+00 -0.57500E+00  0.00000E+00  0.00000E+00  0.00000E+00    0.15493E+03  0.88199E+02 -0.24313E+03 -0.34469E+01 -0.60345E+01  0.23573E+03      982.00
  0.45367E+00  0.55073E+03    0.30000E+00  0.30000E+00 -0.60000E+00  0.00000E+00  0.00000E+00  0.00000E+00    0.15489E+03  0.88209E+02 -0.24310E+03 -0.33688E+01 -0.58197E+01  0.23584E+03      982.00
  0.47022E+00  0.55082E+03    0.31250E+00  0.31250E+00 -0.62500E+00  0.00000E+00  0.00000E+00  0.00000E+00    0.15486E+03  0.88215E+02 -0.24307E+03 -0.32962E+01 -0.56134E+01  0.23594E+03      982.00
  0.48677E+00  0.55090E+03    0.32500E+00  0.32500E+00 -0.65000E+00  0.00000E+00  0.00000E+00  0.00000E+00    0.15484E+03  0.88204E+02 -0.24305E+03 -0.32272E+01 -0.54105E+01  0.23603E+03      982.00
  0.50332E+00  0.55098E+03    0.33750E+00  0.33750E+00 -0.67500E+00  0.00000E+00  0.00000E+00  0.00000E+00    0.15484E+03  0.88181E+02 -0.24302E+03 -0.31611E+01 -0.52116E+01  0.23612E+03      982.00
  0.51986E+00  0.55106E+03    0.35000E+00  0.35000E+00 -0.70000E+00  0.00000E+00  0.00000E+00  0.00000E+00    0.15485E+03  0.88151E+02 -0.24300E+03 -0.30974E+01 -0.50174E+01  0.23619E+03      982.00
  0.53639E+00  0.55112E+03    0.36250E+00  0.36250E+00 -0.72500E+00  0.00000E+00  0.00000E+00  0.00000E+00    0.15486E+03  0.88117E+02 -0.24298E+03 -0.30360E+01 -0.48282E+01  0.23626E+03      982.00
  0.55293E+00  0.55118E+03    0.37500E+00  0.37500E+00 -0.75000E+00  0.00000E+00  0.00000E+00  0.00000E+00    0.15488E+03  0.88079E+02 -0.24296E+03 -0.29764E+01 -0.46442E+01  0.23632E+03      982.00
  0.56946E+00  0.55123E+03    0.38750E+00  0.38750E+00 -0.77500E+00  0.00000E+00  0.00000E+00  0.00000E+00    0.15490E+03  0.88039E+02 -0.24294E+03 -0.29184E+01 -0.44656E+01  0.23638E+03      982.00
  0.58598E+00  0.55128E+03    0.40000E+00  0.40000E+00 -0.80000E+00  0.00000E+00  0.00000E+00  0.00000E+00    0.15492E+03  0.87997E+02 -0.24292E+03 -0.28619E+01 -0.42924E+01  0.23643E+03      982.00
  0.60251E+00  0.55132E+03    0.41250E+00  0.41250E+00 -0.82500E+00  0.00000E+00  0.00000E+00  0.00000E+00    0.15495E+03  0.87954E+02 -0.24290E+03 -0.28067E+01 -0.41246E+01  0.23647E+03      982.00
  0.61903E+00  0.55135E+03    0.42500E+00  0.42500E+00 -0.85000E+00  0.00000E+00  0.00000E+00  0.00000E+00    0.15498E+03  0.87911E+02 -0.24289E+03 -0.27526E+01 -0.39621E+01  0.23651E+03      982.00
  0.63555E+00  0.55138E+03    0.43750E+00  0.43750E+00 -0.87500E+00  0.00000E+00  0.00000E+00  0.00000E+00    0.15501E+03  0.87867E+02 -0.24287E+03 -0.26996E+01 -0.38049E+01  0.23654E+03      982.00
  0.65207E+00  0.55141E+03    0.45000E+00  0.45000E+00 -0.90000E+00  0.00000E+00  0.00000E+00  0.00000E+00    0.15504E+03  0.87822E+02 -0.24286E+03 -0.26476E+01 -0.36529E+01  0.23657E+03      982.00
  0.66858E+00  0.55143E+03    0.46250E+00  0.46250E+00 -0.92500E+00  0.00000E+00  0.00000E+00  0.00000E+00    0.15507E+03  0.87777E+02 -0.24285E+03 -0.25965E+01 -0.35059E+01  0.23660E+03      982.00
  0.68510E+00  0.55145E+03    0.47500E+00  0.47500E+00 -0.95000E+00  0.00000E+00  0.00000E+00  0.00000E+00    0.15510E+03  0.87731E+02 -0.24283E+03 -0.25465E+01 -0.33639E+01  0.23662E+03      982.00
  0.70161E+00  0.55147E+03    0.48750E+00  0.48750E+00 -0.97500E+00  0.00000E+00  0.00000E+00  0.00000E+00    0.15514E+03  0.87686E+02 -0.24282E+03 -0.24973E+01 -0.32266E+01  0.23664E+03      982.00
  0.71812E+00  0.55149E+03    0.50000E+00  0.50000E+00 -0.10000E+01  0.00000E+00  0.00000E+00  0.00000E+00    0.15517E+03  0.87640E+02 -0.24281E+03 -0.24491E+01 -0.30941E+01  0.23665E+03      982.00
