          Evm          Svm            E11          E22          E33          E23          E13          E12         SDEV11       SDEV22       SDEV33       SDEV23       SDEV13       SDEV12      TEMP
  0.00000E+00  0.17069E+03    0.00000E+00  0.00000E+00  0.00000E+00  0.00000E+00  0.00000E+00  0.00000E+00    0.49787E+02  0.61316E+02 -0.11110E+03  0.10535E+02  0.76219E+01  0.15853E+02      982.00
  0.24409E-01  0.17533E+03    0.12500E-01  0.12500E-01 -0.25000E-01  0.00000E+00  0.00000E+00  0.00000E+00    0.52665E+02  0.61083E+02 -0.11375E+03  0.99511E+01  0.74493E+01  0.19238E+02      982.00
  0.48739E-01  0.18801E+03    0.25000E-01  0.25000E-01 -0.50000E-01  0.00000E+00  0.00000E+00  0.00000E+00    0.59743E+02  0.61400E+02 -0.12114E+03  0.98245E+01  0.81454E+01  0.24750E+02      982.00
  0.72901E-01  0.19363E+03    0.37500E-01  0.37500E-01 -0.75000E-01  0.00000E+00  0.00000E+00  0.00000E+00    0.64942E+02  0.59354E+02 -0.12430E+03  0.87425E+01  0.83613E+01  0.27499E+02      982.00
  0.96973E-01  0.19656E+03    0.50000E-01  0.50000E-01 -0.10000E+00  0.00000E+00  0.00000E+00  0.00000E+00    0.67262E+02  0.58492E+02 -0.12575E+03  0.72952E+01  0.77942E+01  0.29759E+02      982.00
  0.12096E+00  0.20723E+03    0.62500E-01  0.62500E-01 -0.12500E+00  0.00000E+00  0.00000E+00  0.00000E+00    0.71279E+02  0.60177E+02 -0.13146E+03  0.65115E+01  0.71796E+01  0.35060E+02      982.00
  0.14475E+00  0.22615E+03    0.75000E-01  0.75000E-01 -0.15000E+00  0.00000E+00  0.00000E+00  0.00000E+00    0.77685E+02  0.63857E+02 -0.14154E+03  0.63030E+01  0.68512E+01  0.43443E+02      982.00
  0.16822E+00  0.25142E+03    0.87500E-01  0.87500E-01 -0.17500E+00  0.00000E+00  0.00000E+00  0.00000E+00    0.86078E+02  0.68779E+02 -0.15486E+03  0.64281E+01  0.67552E+01  0.54075E+02      982.00
  0.19132E+00  0.27886E+03    0.10000E+00  0.10000E+00 -0.20000E+00  0.00000E+00  0.00000E+00  0.00000E+00    0.95356E+02  0.73847E+02 -0.16920E+03  0.66617E+01  0.67124E+01  0.65148E+02      982.00
  0.21407E+00  0.30399E+03    0.11250E+00  0.11250E+00 -0.22500E+00  0.00000E+00  0.00000E+00  0.00000E+00    0.10419E+03  0.78200E+02 -0.18239E+03  0.68753E+01  0.66018E+01  0.74799E+02      982.00
  0.23657E+00  0.32470E+03    0.12500E+00  0.12500E+00 -0.25000E+00  0.00000E+00  0.00000E+00  0.00000E+00    0.11191E+03  0.81513E+02 -0.19342E+03  0.70113E+01  0.64207E+01  0.82237E+02      982.00
  0.25891E+00  0.34065E+03    0.13750E+00  0.13750E+00 -0.27500E+00  0.00000E+00  0.00000E+00  0.00000E+00    0.11827E+03  0.83912E+02 -0.20218E+03  0.70881E+01  0.62028E+01  0.87398E+02      982.00
  0.28117E+00  0.35252E+03    0.15000E+00  0.15000E+00 -0.30000E+00  0.00000E+00  0.00000E+00  0.00000E+00    0.12340E+03  0.85626E+02 -0.20903E+03  0.71288E+01  0.59837E+01  0.90621E+02      982.00
  0.30340E+00  0.36115E+03    0.16250E+00  0.16250E+00 -0.32500E+00  0.00000E+00  0.00000E+00  0.00000E+00    0.12755E+03  0.86811E+02 -0.21436E+03  0.71470E+01  0.57913E+01  0.92279E+02      982.00
  0.32566E+00  0.36727E+03    0.17500E+00  0.17500E+00 -0.35000E+00  0.00000E+00  0.00000E+00  0.00000E+00    0.13086E+03  0.87672E+02 -0.21853E+03  0.71576E+01  0.56297E+01  0.92715E+02      982.00
  0.34797E+00  0.37150E+03    0.18750E+00  0.18750E+00 -0.37500E+00  0.00000E+00  0.00000E+00  0.00000E+00    0.13357E+03  0.88269E+02 -0.22184E+03  0.71689E+01  0.55165E+01  0.92185E+02      982.00
  0.37037E+00  0.37431E+03    0.20000E+00  0.20000E+00 -0.40000E+00  0.00000E+00  0.00000E+00  0.00000E+00    0.13582E+03  0.88695E+02 -0.22452E+03  0.71971E+01  0.54610E+01  0.90883E+02      982.00
  0.39286E+00  0.37606E+03    0.21250E+00  0.21250E+00 -0.42500E+00  0.00000E+00  0.00000E+00  0.00000E+00    0.13767E+03  0.89055E+02 -0.22672E+03  0.72496E+01  0.54596E+01  0.88964E+02      982.00
  0.41547E+00  0.37708E+03    0.22500E+00  0.22500E+00 -0.45000E+00  0.00000E+00  0.00000E+00  0.00000E+00    0.13928E+03  0.89325E+02 -0.22861E+03  0.73337E+01  0.55262E+01  0.86551E+02      982.00
  0.43820E+00  0.37757E+03    0.23750E+00  0.23750E+00 -0.47500E+00  0.00000E+00  0.00000E+00  0.00000E+00    0.14064E+03  0.89637E+02 -0.23028E+03  0.74575E+01  0.56470E+01  0.83737E+02      982.00
  0.46108E+00  0.37527E+03    0.25000E+00  0.25000E+00 -0.50000E+00  0.00000E+00  0.00000E+00  0.00000E+00    0.14067E+03  0.89679E+02 -0.23035E+03  0.75161E+01  0.57746E+01  0.80055E+02      982.00
  0.48409E+00  0.37340E+03    0.26250E+00  0.26250E+00 -0.52500E+00  0.00000E+00  0.00000E+00  0.00000E+00    0.14073E+03  0.89840E+02 -0.23057E+03  0.75722E+01  0.58979E+01  0.76577E+02      982.00
  0.50725E+00  0.37178E+03    0.27500E+00  0.27500E+00 -0.55000E+00  0.00000E+00  0.00000E+00  0.00000E+00    0.14079E+03  0.90118E+02 -0.23091E+03  0.76842E+01  0.60665E+01  0.73121E+02      982.00
  0.53054E+00  0.37043E+03    0.28750E+00  0.28750E+00 -0.57500E+00  0.00000E+00  0.00000E+00  0.00000E+00    0.14082E+03  0.90515E+02 -0.23133E+03  0.77775E+01  0.62070E+01  0.69798E+02      982.00
  0.55396E+00  0.36928E+03    0.30000E+00  0.30000E+00 -0.60000E+00  0.00000E+00  0.00000E+00  0.00000E+00    0.14083E+03  0.90992E+02 -0.23182E+03  0.78638E+01  0.63360E+01  0.66550E+02      982.00
  0.57750E+00  0.36848E+03    0.31250E+00  0.31250E+00 -0.62500E+00  0.00000E+00  0.00000E+00  0.00000E+00    0.14083E+03  0.91619E+02 -0.23245E+03  0.79818E+01  0.64857E+01  0.63429E+02      982.00
  0.60116E+00  0.36794E+03    0.32500E+00  0.32500E+00 -0.65000E+00  0.00000E+00  0.00000E+00  0.00000E+00    0.14083E+03  0.92344E+02 -0.23318E+03  0.81028E+01  0.66328E+01  0.60422E+02      982.00
  0.62492E+00  0.36765E+03    0.33750E+00  0.33750E+00 -0.67500E+00  0.00000E+00  0.00000E+00  0.00000E+00    0.14083E+03  0.93171E+02 -0.23400E+03  0.82634E+01  0.68080E+01  0.57492E+02      982.00
  0.64879E+00  0.36762E+03    0.35000E+00  0.35000E+00 -0.70000E+00  0.00000E+00  0.00000E+00  0.00000E+00    0.14084E+03  0.94068E+02 -0.23491E+03  0.83703E+01  0.69336E+01  0.54732E+02      982.00
  0.67275E+00  0.36776E+03    0.36250E+00  0.36250E+00 -0.72500E+00  0.00000E+00  0.00000E+00  0.00000E+00    0.14085E+03  0.95010E+02 -0.23586E+03  0.84460E+01  0.70322E+01  0.52081E+02      982.00
  0.69680E+00  0.36820E+03    0.37500E+00  0.37500E+00 -0.75000E+00  0.00000E+00  0.00000E+00  0.00000E+00    0.14090E+03  0.96037E+02 -0.23694E+03  0.85422E+01  0.71446E+01  0.49566E+02      982.00
  0.72093E+00  0.36884E+03    0.38750E+00  0.38750E+00 -0.77500E+00  0.00000E+00  0.00000E+00  0.00000E+00    0.14098E+03  0.97114E+02 -0.23809E+03  0.86279E+01  0.72463E+01  0.47170E+02      982.00
  0.74514E+00  0.36968E+03    0.40000E+00  0.40000E+00 -0.80000E+00  0.00000E+00  0.00000E+00  0.00000E+00    0.14107E+03  0.98234E+02 -0.23931E+03  0.87018E+01  0.73366E+01  0.44891E+02      982.00
  0.76942E+00  0.37070E+03    0.41250E+00  0.41250E+00 -0.82500E+00  0.00000E+00  0.00000E+00  0.00000E+00    0.14120E+03  0.99388E+02 -0.24059E+03  0.87636E+01  0.74156E+01  0.42726E+02      982.00
  0.79375E+00  0.37187E+03    0.42500E+00  0.42500E+00 -0.85000E+00  0.00000E+00  0.00000E+00  0.00000E+00    0.14135E+03  0.10057E+03 -0.24192E+03  0.88132E+01  0.74834E+01  0.40669E+02      982.00
  0.81815E+00  0.37313E+03    0.43750E+00  0.43750E+00 -0.87500E+00  0.00000E+00  0.00000E+00  0.00000E+00    0.14148E+03  0.10179E+03 -0.24327E+03  0.89017E+01  0.75734E+01  0.38663E+02      982.00
  0.84260E+00  0.37460E+03    0.45000E+00  0.45000E+00 -0.90000E+00  0.00000E+00  0.00000E+00  0.00000E+00    0.14168E+03  0.10301E+03 -0.24470E+03  0.89221E+01  0.76147E+01  0.36821E+02      982.00
  0.86709E+00  0.37616E+03    0.46250E+00  0.46250E+00 -0.92500E+00  0.00000E+00  0.00000E+00  0.00000E+00    0.14191E+03  0.10424E+03 -0.24615E+03  0.89339E+01  0.76497E+01  0.35069E+02      982.00
  0.89163E+00  0.37783E+03    0.47500E+00  0.47500E+00 -0.95000E+00  0.00000E+00  0.00000E+00  0.00000E+00    0.14216E+03  0.10548E+03 -0.24764E+03  0.89324E+01  0.76724E+01  0.33414E+02      982.00
  0.91621E+00  0.37959E+03    0.48750E+00  0.48750E+00 -0.97500E+00  0.00000E+00  0.00000E+00  0.00000E+00    0.14243E+03  0.10672E+03 -0.24916E+03  0.89214E+01  0.76869E+01  0.31844E+02      982.00
  0.94082E+00  0.38144E+03    0.50000E+00  0.50000E+00 -0.10000E+01  0.00000E+00  0.00000E+00  0.00000E+00    0.14271E+03  0.10799E+03 -0.25070E+03  0.89430E+01  0.77165E+01  0.30327E+02      982.00
