          Evm          Svm            E11          E22          E33          E23          E13          E12         SDEV11       SDEV22       SDEV33       SDEV23       SDEV13       SDEV12      TEMP
  0.00000E+00  0.14937E+03    0.00000E+00  0.00000E+00  0.00000E+00  0.00000E+00  0.00000E+00  0.00000E+00    0.55851E+02  0.41030E+02 -0.96881E+02  0.68843E+01  0.99671E+01  0.14004E+02      982.00
  0.24322E-01  0.14692E+03    0.12500E-01  0.12500E-01 -0.25000E-01  0.00000E+00  0.00000E+00  0.00000E+00    0.54907E+02  0.40273E+02 -0.95180E+02  0.59473E+01  0.93767E+01  0.14953E+02      982.00
  0.48617E-01  0.14841E+03    0.25000E-01  0.25000E-01 -0.50000E-01  0.00000E+00  0.00000E+00  0.00000E+00    0.54845E+02  0.40955E+02 -0.95800E+02  0.55718E+01  0.92540E+01  0.17125E+02      982.00
  0.72824E-01  0.15457E+03    0.37500E-01  0.37500E-01 -0.75000E-01  0.00000E+00  0.00000E+00  0.00000E+00    0.55722E+02  0.43377E+02 -0.99099E+02  0.56611E+01  0.95151E+01  0.20933E+02      982.00
  0.96866E-01  0.16652E+03    0.50000E-01  0.50000E-01 -0.10000E+00  0.00000E+00  0.00000E+00  0.00000E+00    0.57563E+02  0.47942E+02 -0.10550E+03  0.61425E+01  0.10092E+02  0.27043E+02      982.00
  0.12063E+00  0.18596E+03    0.62500E-01  0.62500E-01 -0.12500E+00  0.00000E+00  0.00000E+00  0.00000E+00    0.60444E+02  0.55216E+02 -0.11566E+03  0.69587E+01  0.10938E+02  0.36320E+02      982.00
  0.14395E+00  0.21480E+03    0.75000E-01  0.75000E-01 -0.15000E+00  0.00000E+00  0.00000E+00  0.00000E+00    0.64355E+02  0.65787E+02 -0.13014E+03  0.80127E+01  0.11984E+02  0.49680E+02      982.00
  0.16667E+00  0.25287E+03    0.87500E-01  0.87500E-01 -0.17500E+00  0.00000E+00  0.00000E+00  0.00000E+00    0.68940E+02  0.79603E+02 -0.14854E+03  0.90544E+01  0.13048E+02  0.66977E+02      982.00
  0.18870E+00  0.29497E+03    0.10000E+00  0.10000E+00 -0.20000E+00  0.00000E+00  0.00000E+00  0.00000E+00    0.73289E+02  0.95018E+02 -0.16831E+03  0.96852E+01  0.13828E+02  0.85752E+02      982.00
  0.21010E+00  0.33335E+03    0.11250E+00  0.11250E+00 -0.22500E+00  0.00000E+00  0.00000E+00  0.00000E+00    0.76600E+02  0.10948E+03 -0.18608E+03  0.96859E+01  0.14145E+02  0.10251E+03      982.00
  0.23103E+00  0.36440E+03    0.12500E+00  0.12500E+00 -0.25000E+00  0.00000E+00  0.00000E+00  0.00000E+00    0.78724E+02  0.12173E+03 -0.20045E+03  0.91465E+01  0.14062E+02  0.11569E+03      982.00
  0.25166E+00  0.38865E+03    0.13750E+00  0.13750E+00 -0.27500E+00  0.00000E+00  0.00000E+00  0.00000E+00    0.79773E+02  0.13202E+03 -0.21179E+03  0.81894E+01  0.13671E+02  0.12558E+03      982.00
  0.27209E+00  0.40785E+03    0.15000E+00  0.15000E+00 -0.30000E+00  0.00000E+00  0.00000E+00  0.00000E+00    0.79890E+02  0.14100E+03 -0.22089E+03  0.68025E+01  0.12965E+02  0.13307E+03      982.00
  0.29240E+00  0.42324E+03    0.16250E+00  0.16250E+00 -0.32500E+00  0.00000E+00  0.00000E+00  0.00000E+00    0.79374E+02  0.14886E+03 -0.22823E+03  0.48773E+01  0.11855E+02  0.13883E+03      982.00
  0.31262E+00  0.43333E+03    0.17500E+00  0.17500E+00 -0.35000E+00  0.00000E+00  0.00000E+00  0.00000E+00    0.78595E+02  0.15463E+03 -0.23322E+03  0.27909E+01  0.10470E+02  0.14225E+03      982.00
  0.33281E+00  0.43694E+03    0.18750E+00  0.18750E+00 -0.37500E+00  0.00000E+00  0.00000E+00  0.00000E+00    0.77636E+02  0.15795E+03 -0.23559E+03  0.15066E+01  0.93308E+01  0.14252E+03      982.00
  0.35302E+00  0.43773E+03    0.20000E+00  0.20000E+00 -0.40000E+00  0.00000E+00  0.00000E+00  0.00000E+00    0.76730E+02  0.16018E+03 -0.23691E+03  0.76598E+00  0.84031E+01  0.14129E+03      982.00
  0.37332E+00  0.43716E+03    0.21250E+00  0.21250E+00 -0.42500E+00  0.00000E+00  0.00000E+00  0.00000E+00    0.76138E+02  0.16168E+03 -0.23782E+03  0.29521E+00  0.76137E+01  0.13928E+03      982.00
  0.39372E+00  0.43522E+03    0.22500E+00  0.22500E+00 -0.45000E+00  0.00000E+00  0.00000E+00  0.00000E+00    0.75998E+02  0.16227E+03 -0.23827E+03  0.20663E-01  0.70168E+01  0.13657E+03      982.00
  0.41425E+00  0.43156E+03    0.23750E+00  0.23750E+00 -0.47500E+00  0.00000E+00  0.00000E+00  0.00000E+00    0.76169E+02  0.16185E+03 -0.23802E+03  0.96364E-02  0.66641E+01  0.13308E+03      982.00
  0.43493E+00  0.42714E+03    0.25000E+00  0.25000E+00 -0.50000E+00  0.00000E+00  0.00000E+00  0.00000E+00    0.76212E+02  0.16122E+03 -0.23743E+03  0.13250E+00  0.64078E+01  0.12918E+03      982.00
  0.45578E+00  0.42239E+03    0.26250E+00  0.26250E+00 -0.52500E+00  0.00000E+00  0.00000E+00  0.00000E+00    0.76232E+02  0.16051E+03 -0.23674E+03  0.39544E+00  0.62066E+01  0.12499E+03      982.00
  0.47680E+00  0.41603E+03    0.27500E+00  0.27500E+00 -0.55000E+00  0.00000E+00  0.00000E+00  0.00000E+00    0.75783E+02  0.15942E+03 -0.23520E+03  0.72079E+00  0.61036E+01  0.12006E+03      982.00
  0.49800E+00  0.40970E+03    0.28750E+00  0.28750E+00 -0.57500E+00  0.00000E+00  0.00000E+00  0.00000E+00    0.75484E+02  0.15819E+03 -0.23367E+03  0.11276E+01  0.59788E+01  0.11513E+03      982.00
  0.51938E+00  0.40363E+03    0.30000E+00  0.30000E+00 -0.60000E+00  0.00000E+00  0.00000E+00  0.00000E+00    0.75376E+02  0.15685E+03 -0.23222E+03  0.15696E+01  0.58115E+01  0.11028E+03      982.00
  0.54096E+00  0.39790E+03    0.31250E+00  0.31250E+00 -0.62500E+00  0.00000E+00  0.00000E+00  0.00000E+00    0.75564E+02  0.15536E+03 -0.23093E+03  0.20292E+01  0.56153E+01  0.10560E+03      982.00
  0.56272E+00  0.39261E+03    0.32500E+00  0.32500E+00 -0.65000E+00  0.00000E+00  0.00000E+00  0.00000E+00    0.75998E+02  0.15381E+03 -0.22981E+03  0.24786E+01  0.54050E+01  0.10110E+03      982.00
  0.58467E+00  0.38780E+03    0.33750E+00  0.33750E+00 -0.67500E+00  0.00000E+00  0.00000E+00  0.00000E+00    0.76691E+02  0.15221E+03 -0.22890E+03  0.29139E+01  0.52051E+01  0.96800E+02      982.00
  0.60681E+00  0.38342E+03    0.35000E+00  0.35000E+00 -0.70000E+00  0.00000E+00  0.00000E+00  0.00000E+00    0.77733E+02  0.15049E+03 -0.22823E+03  0.34537E+01  0.50540E+01  0.92608E+02      982.00
  0.62913E+00  0.37952E+03    0.36250E+00  0.36250E+00 -0.72500E+00  0.00000E+00  0.00000E+00  0.00000E+00    0.78790E+02  0.14889E+03 -0.22768E+03  0.38282E+01  0.48889E+01  0.88687E+02      982.00
  0.65163E+00  0.37604E+03    0.37500E+00  0.37500E+00 -0.75000E+00  0.00000E+00  0.00000E+00  0.00000E+00    0.79996E+02  0.14730E+03 -0.22730E+03  0.41662E+01  0.47540E+01  0.84937E+02      982.00
  0.67429E+00  0.37303E+03    0.38750E+00  0.38750E+00 -0.77500E+00  0.00000E+00  0.00000E+00  0.00000E+00    0.81244E+02  0.14586E+03 -0.22710E+03  0.44934E+01  0.46488E+01  0.81351E+02      982.00
  0.69712E+00  0.37045E+03    0.40000E+00  0.40000E+00 -0.80000E+00  0.00000E+00  0.00000E+00  0.00000E+00    0.82538E+02  0.14453E+03 -0.22707E+03  0.47997E+01  0.45719E+01  0.77915E+02      982.00
  0.72011E+00  0.36826E+03    0.41250E+00  0.41250E+00 -0.82500E+00  0.00000E+00  0.00000E+00  0.00000E+00    0.83867E+02  0.14330E+03 -0.22717E+03  0.50595E+01  0.45216E+01  0.74634E+02      982.00
  0.74324E+00  0.36643E+03    0.42500E+00  0.42500E+00 -0.85000E+00  0.00000E+00  0.00000E+00  0.00000E+00    0.85231E+02  0.14218E+03 -0.22741E+03  0.53324E+01  0.44894E+01  0.71484E+02      982.00
  0.76652E+00  0.36495E+03    0.43750E+00  0.43750E+00 -0.87500E+00  0.00000E+00  0.00000E+00  0.00000E+00    0.86620E+02  0.14116E+03 -0.22778E+03  0.55909E+01  0.44746E+01  0.68469E+02      982.00
  0.78992E+00  0.36379E+03    0.45000E+00  0.45000E+00 -0.90000E+00  0.00000E+00  0.00000E+00  0.00000E+00    0.88028E+02  0.14023E+03 -0.22826E+03  0.58358E+01  0.44736E+01  0.65585E+02      982.00
  0.81345E+00  0.36298E+03    0.46250E+00  0.46250E+00 -0.92500E+00  0.00000E+00  0.00000E+00  0.00000E+00    0.89439E+02  0.13944E+03 -0.22888E+03  0.60573E+01  0.44842E+01  0.62837E+02      982.00
  0.83710E+00  0.36242E+03    0.47500E+00  0.47500E+00 -0.95000E+00  0.00000E+00  0.00000E+00  0.00000E+00    0.90870E+02  0.13870E+03 -0.22957E+03  0.62791E+01  0.45028E+01  0.60197E+02      982.00
  0.86085E+00  0.36206E+03    0.48750E+00  0.48750E+00 -0.97500E+00  0.00000E+00  0.00000E+00  0.00000E+00    0.92360E+02  0.13797E+03 -0.23033E+03  0.65251E+01  0.45273E+01  0.57655E+02      982.00
  0.88471E+00  0.36201E+03    0.50000E+00  0.50000E+00 -0.10000E+01  0.00000E+00  0.00000E+00  0.00000E+00    0.93801E+02  0.13740E+03 -0.23120E+03  0.67179E+01  0.45571E+01  0.55247E+02      982.00
