          Evm          Svm            E11          E22          E33          E23          E13          E12         SDEV11       SDEV22       SDEV33       SDEV23       SDEV13       SDEV12      TEMP
  0.00000E+00  0.18037E+03    0.00000E+00  0.00000E+00  0.00000E+00  0.00000E+00  0.00000E+00  0.00000E+00    0.57366E+02  0.56747E+02 -0.11411E+03  0.13114E+02  0.15672E+02  0.25708E+02      982.00
  0.23724E-01  0.17955E+03    0.12500E-01  0.12500E-01 -0.25000E-01  0.00000E+00  0.00000E+00  0.00000E+00    0.57198E+02  0.56196E+02 -0.11339E+03  0.12160E+02  0.14409E+02  0.27326E+02      982.00
  0.47407E-01  0.18256E+03    0.25000E-01  0.25000E-01 -0.50000E-01  0.00000E+00  0.00000E+00  0.00000E+00    0.58157E+02  0.56573E+02 -0.11473E+03  0.11567E+02  0.13657E+02  0.30272E+02      982.00
  0.70974E-01  0.19082E+03    0.37500E-01  0.37500E-01 -0.75000E-01  0.00000E+00  0.00000E+00  0.00000E+00    0.60624E+02  0.58177E+02 -0.11880E+03  0.11204E+02  0.13264E+02  0.35341E+02      982.00
  0.94321E-01  0.20770E+03    0.50000E-01  0.50000E-01 -0.10000E+00  0.00000E+00  0.00000E+00  0.00000E+00    0.65452E+02  0.61715E+02 -0.12717E+03  0.11045E+02  0.13176E+02  0.44186E+02      982.00
  0.11728E+00  0.24053E+03    0.62500E-01  0.62500E-01 -0.12500E+00  0.00000E+00  0.00000E+00  0.00000E+00    0.74402E+02  0.68553E+02 -0.14296E+03  0.11088E+02  0.13340E+02  0.60395E+02      982.00
  0.13957E+00  0.26452E+03    0.75000E-01  0.75000E-01 -0.15000E+00  0.00000E+00  0.00000E+00  0.00000E+00    0.80977E+02  0.73027E+02 -0.15400E+03  0.10625E+02  0.12866E+02  0.72398E+02      982.00
  0.16140E+00  0.26474E+03    0.87500E-01  0.87500E-01 -0.17500E+00  0.00000E+00  0.00000E+00  0.00000E+00    0.81241E+02  0.72682E+02 -0.15392E+03  0.95577E+01  0.11723E+02  0.73124E+02      982.00
  0.18320E+00  0.28331E+03    0.10000E+00  0.10000E+00 -0.20000E+00  0.00000E+00  0.00000E+00  0.00000E+00    0.86024E+02  0.76256E+02 -0.16228E+03  0.87291E+01  0.10852E+02  0.82377E+02      982.00
  0.20468E+00  0.31268E+03    0.11250E+00  0.11250E+00 -0.22500E+00  0.00000E+00  0.00000E+00  0.00000E+00    0.93541E+02  0.81940E+02 -0.17548E+03  0.82016E+01  0.10294E+02  0.96375E+02      982.00
  0.22573E+00  0.34303E+03    0.12500E+00  0.12500E+00 -0.25000E+00  0.00000E+00  0.00000E+00  0.00000E+00    0.10139E+03  0.87705E+02 -0.18910E+03  0.77809E+01  0.98348E+01  0.11046E+03      982.00
  0.24640E+00  0.36883E+03    0.13750E+00  0.13750E+00 -0.27500E+00  0.00000E+00  0.00000E+00  0.00000E+00    0.10823E+03  0.92546E+02 -0.20078E+03  0.73727E+01  0.93694E+01  0.12210E+03      982.00
  0.26682E+00  0.38870E+03    0.15000E+00  0.15000E+00 -0.30000E+00  0.00000E+00  0.00000E+00  0.00000E+00    0.11367E+03  0.96296E+02 -0.20997E+03  0.69673E+01  0.88872E+01  0.13075E+03      982.00
  0.28707E+00  0.40353E+03    0.16250E+00  0.16250E+00 -0.32500E+00  0.00000E+00  0.00000E+00  0.00000E+00    0.11790E+03  0.99159E+02 -0.21706E+03  0.65623E+01  0.83917E+01  0.13691E+03      982.00
  0.30724E+00  0.41433E+03    0.17500E+00  0.17500E+00 -0.35000E+00  0.00000E+00  0.00000E+00  0.00000E+00    0.12113E+03  0.10134E+03 -0.22248E+03  0.61554E+01  0.78849E+01  0.14108E+03      982.00
  0.32738E+00  0.42198E+03    0.18750E+00  0.18750E+00 -0.37500E+00  0.00000E+00  0.00000E+00  0.00000E+00    0.12359E+03  0.10302E+03 -0.22661E+03  0.57517E+01  0.73748E+01  0.14370E+03      982.00
  0.34752E+00  0.42698E+03    0.20000E+00  0.20000E+00 -0.40000E+00  0.00000E+00  0.00000E+00  0.00000E+00    0.12539E+03  0.10429E+03 -0.22968E+03  0.53633E+01  0.68755E+01  0.14497E+03      982.00
  0.36769E+00  0.43020E+03    0.21250E+00  0.21250E+00 -0.42500E+00  0.00000E+00  0.00000E+00  0.00000E+00    0.12676E+03  0.10529E+03 -0.23205E+03  0.49695E+01  0.63717E+01  0.14534E+03      982.00
  0.38792E+00  0.43157E+03    0.22500E+00  0.22500E+00 -0.45000E+00  0.00000E+00  0.00000E+00  0.00000E+00    0.12774E+03  0.10603E+03 -0.23376E+03  0.46820E+01  0.59837E+01  0.14465E+03      982.00
  0.40823E+00  0.43162E+03    0.23750E+00  0.23750E+00 -0.47500E+00  0.00000E+00  0.00000E+00  0.00000E+00    0.12824E+03  0.10669E+03 -0.23493E+03  0.42951E+01  0.54776E+01  0.14332E+03      982.00
  0.42864E+00  0.42754E+03    0.25000E+00  0.25000E+00 -0.50000E+00  0.00000E+00  0.00000E+00  0.00000E+00    0.12754E+03  0.10660E+03 -0.23414E+03  0.40075E+01  0.51103E+01  0.14022E+03      982.00
  0.44918E+00  0.42325E+03    0.26250E+00  0.26250E+00 -0.52500E+00  0.00000E+00  0.00000E+00  0.00000E+00    0.12689E+03  0.10641E+03 -0.23330E+03  0.37483E+01  0.47791E+01  0.13692E+03      982.00
  0.46985E+00  0.41884E+03    0.27500E+00  0.27500E+00 -0.55000E+00  0.00000E+00  0.00000E+00  0.00000E+00    0.12625E+03  0.10621E+03 -0.23246E+03  0.35281E+01  0.44902E+01  0.13347E+03      982.00
  0.49066E+00  0.41434E+03    0.28750E+00  0.28750E+00 -0.57500E+00  0.00000E+00  0.00000E+00  0.00000E+00    0.12560E+03  0.10601E+03 -0.23160E+03  0.33477E+01  0.42445E+01  0.12989E+03      982.00
  0.51162E+00  0.40958E+03    0.30000E+00  0.30000E+00 -0.60000E+00  0.00000E+00  0.00000E+00  0.00000E+00    0.12489E+03  0.10580E+03 -0.23069E+03  0.32290E+01  0.40630E+01  0.12604E+03      982.00
  0.53274E+00  0.40512E+03    0.31250E+00  0.31250E+00 -0.62500E+00  0.00000E+00  0.00000E+00  0.00000E+00    0.12428E+03  0.10562E+03 -0.22989E+03  0.31148E+01  0.38908E+01  0.12231E+03      982.00
  0.55402E+00  0.40060E+03    0.32500E+00  0.32500E+00 -0.65000E+00  0.00000E+00  0.00000E+00  0.00000E+00    0.12364E+03  0.10545E+03 -0.22909E+03  0.30558E+01  0.37767E+01  0.11842E+03      982.00
  0.57547E+00  0.39616E+03    0.33750E+00  0.33750E+00 -0.67500E+00  0.00000E+00  0.00000E+00  0.00000E+00    0.12303E+03  0.10532E+03 -0.22835E+03  0.30355E+01  0.37049E+01  0.11448E+03      982.00
  0.59708E+00  0.39185E+03    0.35000E+00  0.35000E+00 -0.70000E+00  0.00000E+00  0.00000E+00  0.00000E+00    0.12244E+03  0.10521E+03 -0.22766E+03  0.30528E+01  0.36742E+01  0.11052E+03      982.00
  0.61887E+00  0.38760E+03    0.36250E+00  0.36250E+00 -0.72500E+00  0.00000E+00  0.00000E+00  0.00000E+00    0.12187E+03  0.10513E+03 -0.22700E+03  0.31173E+01  0.36938E+01  0.10648E+03      982.00
  0.64083E+00  0.38367E+03    0.37500E+00  0.37500E+00 -0.75000E+00  0.00000E+00  0.00000E+00  0.00000E+00    0.12137E+03  0.10510E+03 -0.22647E+03  0.32030E+01  0.37378E+01  0.10252E+03      982.00
  0.66297E+00  0.37997E+03    0.38750E+00  0.38750E+00 -0.77500E+00  0.00000E+00  0.00000E+00  0.00000E+00    0.12091E+03  0.10512E+03 -0.22603E+03  0.33183E+01  0.38144E+01  0.98599E+02      982.00
  0.68527E+00  0.37639E+03    0.40000E+00  0.40000E+00 -0.80000E+00  0.00000E+00  0.00000E+00  0.00000E+00    0.12046E+03  0.10517E+03 -0.22563E+03  0.34891E+01  0.39489E+01  0.94630E+02      982.00
  0.70775E+00  0.37326E+03    0.41250E+00  0.41250E+00 -0.82500E+00  0.00000E+00  0.00000E+00  0.00000E+00    0.12011E+03  0.10528E+03 -0.22540E+03  0.36499E+01  0.40765E+01  0.90842E+02      982.00
  0.73040E+00  0.37042E+03    0.42500E+00  0.42500E+00 -0.85000E+00  0.00000E+00  0.00000E+00  0.00000E+00    0.11983E+03  0.10545E+03 -0.22527E+03  0.38287E+01  0.42245E+01  0.87140E+02      982.00
  0.75320E+00  0.36790E+03    0.43750E+00  0.43750E+00 -0.87500E+00  0.00000E+00  0.00000E+00  0.00000E+00    0.11960E+03  0.10566E+03 -0.22526E+03  0.40214E+01  0.43886E+01  0.83535E+02      982.00
  0.77616E+00  0.36570E+03    0.45000E+00  0.45000E+00 -0.90000E+00  0.00000E+00  0.00000E+00  0.00000E+00    0.11943E+03  0.10592E+03 -0.22535E+03  0.42238E+01  0.45646E+01  0.80037E+02      982.00
  0.79927E+00  0.36388E+03    0.46250E+00  0.46250E+00 -0.92500E+00  0.00000E+00  0.00000E+00  0.00000E+00    0.11935E+03  0.10625E+03 -0.22560E+03  0.44204E+01  0.47365E+01  0.76684E+02      982.00
  0.82252E+00  0.36230E+03    0.47500E+00  0.47500E+00 -0.95000E+00  0.00000E+00  0.00000E+00  0.00000E+00    0.11931E+03  0.10660E+03 -0.22591E+03  0.46321E+01  0.49254E+01  0.73420E+02      982.00
  0.84590E+00  0.36086E+03    0.48750E+00  0.48750E+00 -0.97500E+00  0.00000E+00  0.00000E+00  0.00000E+00    0.11927E+03  0.10698E+03 -0.22625E+03  0.48667E+01  0.51396E+01  0.70193E+02      982.00
  0.86942E+00  0.35989E+03    0.50000E+00  0.50000E+00 -0.10000E+01  0.00000E+00  0.00000E+00  0.00000E+00    0.11935E+03  0.10742E+03 -0.22677E+03  0.50681E+01  0.53213E+01  0.67187E+02      982.00
