          Evm          Svm            E11          E22          E33          E23          E13          E12         SDEV11       SDEV22       SDEV33       SDEV23       SDEV13       SDEV12      TEMP
  0.00000E+00  0.14905E+03    0.00000E+00  0.00000E+00  0.00000E+00  0.00000E+00  0.00000E+00  0.00000E+00    0.48352E+02  0.45995E+02 -0.94347E+02  0.87609E+00  0.35586E+00  0.26963E+02      982.00
  0.23737E-01  0.14976E+03    0.12500E-01  0.12500E-01 -0.25000E-01  0.00000E+00  0.00000E+00  0.00000E+00    0.48887E+02  0.45462E+02 -0.94349E+02  0.13756E+01  0.59391E+00  0.28186E+02      982.00
  0.47362E-01  0.15292E+03    0.25000E-01  0.25000E-01 -0.50000E-01  0.00000E+00  0.00000E+00  0.00000E+00    0.50011E+02  0.45479E+02 -0.95489E+02  0.18014E+01  0.74220E+00  0.30769E+02      982.00
  0.70780E-01  0.15876E+03    0.37500E-01  0.37500E-01 -0.75000E-01  0.00000E+00  0.00000E+00  0.00000E+00    0.51766E+02  0.46074E+02 -0.97840E+02  0.21581E+01  0.87935E+00  0.34770E+02      982.00
  0.93889E-01  0.16825E+03    0.50000E-01  0.50000E-01 -0.10000E+00  0.00000E+00  0.00000E+00  0.00000E+00    0.54383E+02  0.47357E+02 -0.10174E+03  0.24923E+01  0.10575E+01  0.40652E+02      982.00
  0.11657E+00  0.18275E+03    0.62500E-01  0.62500E-01 -0.12500E+00  0.00000E+00  0.00000E+00  0.00000E+00    0.58180E+02  0.49466E+02 -0.10765E+03  0.28608E+01  0.12806E+01  0.49123E+02      982.00
  0.13865E+00  0.20408E+03    0.75000E-01  0.75000E-01 -0.15000E+00  0.00000E+00  0.00000E+00  0.00000E+00    0.63532E+02  0.52604E+02 -0.11614E+03  0.32883E+01  0.15852E+01  0.61026E+02      982.00
  0.15999E+00  0.23405E+03    0.87500E-01  0.87500E-01 -0.17500E+00  0.00000E+00  0.00000E+00  0.00000E+00    0.70786E+02  0.56966E+02 -0.12775E+03  0.37723E+01  0.20148E+01  0.77157E+02      982.00
  0.18046E+00  0.27479E+03    0.10000E+00  0.10000E+00 -0.20000E+00  0.00000E+00  0.00000E+00  0.00000E+00    0.80346E+02  0.62725E+02 -0.14307E+03  0.43645E+01  0.25306E+01  0.98566E+02      982.00
  0.19999E+00  0.32368E+03    0.11250E+00  0.11250E+00 -0.22500E+00  0.00000E+00  0.00000E+00  0.00000E+00    0.91540E+02  0.69474E+02 -0.16101E+03  0.49848E+01  0.30997E+01  0.12379E+03      982.00
  0.21864E+00  0.37284E+03    0.12500E+00  0.12500E+00 -0.25000E+00  0.00000E+00  0.00000E+00  0.00000E+00    0.10264E+03  0.76219E+02 -0.17886E+03  0.54759E+01  0.36580E+01  0.14875E+03      982.00
  0.23663E+00  0.41488E+03    0.13750E+00  0.13750E+00 -0.27500E+00  0.00000E+00  0.00000E+00  0.00000E+00    0.11207E+03  0.81977E+02 -0.19404E+03  0.57831E+01  0.40865E+01  0.16988E+03      982.00
  0.25417E+00  0.44710E+03    0.15000E+00  0.15000E+00 -0.30000E+00  0.00000E+00  0.00000E+00  0.00000E+00    0.11925E+03  0.86474E+02 -0.20572E+03  0.58891E+01  0.44090E+01  0.18592E+03      982.00
  0.27143E+00  0.47171E+03    0.16250E+00  0.16250E+00 -0.32500E+00  0.00000E+00  0.00000E+00  0.00000E+00    0.12471E+03  0.89959E+02 -0.21467E+03  0.58760E+01  0.46247E+01  0.19812E+03      982.00
  0.28849E+00  0.49057E+03    0.17500E+00  0.17500E+00 -0.35000E+00  0.00000E+00  0.00000E+00  0.00000E+00    0.12887E+03  0.92663E+02 -0.22153E+03  0.57811E+01  0.47589E+01  0.20743E+03      982.00
  0.30543E+00  0.50535E+03    0.18750E+00  0.18750E+00 -0.37500E+00  0.00000E+00  0.00000E+00  0.00000E+00    0.13211E+03  0.94803E+02 -0.22691E+03  0.56385E+01  0.48286E+01  0.21473E+03      982.00
  0.32226E+00  0.51671E+03    0.20000E+00  0.20000E+00 -0.40000E+00  0.00000E+00  0.00000E+00  0.00000E+00    0.13458E+03  0.96485E+02 -0.23107E+03  0.54427E+01  0.48705E+01  0.22031E+03      982.00
  0.33903E+00  0.52614E+03    0.21250E+00  0.21250E+00 -0.42500E+00  0.00000E+00  0.00000E+00  0.00000E+00    0.13662E+03  0.97859E+02 -0.23448E+03  0.52461E+01  0.48531E+01  0.22498E+03      982.00
  0.35575E+00  0.53389E+03    0.22500E+00  0.22500E+00 -0.45000E+00  0.00000E+00  0.00000E+00  0.00000E+00    0.13828E+03  0.98990E+02 -0.23727E+03  0.50393E+01  0.48056E+01  0.22881E+03      982.00
  0.37241E+00  0.54008E+03    0.23750E+00  0.23750E+00 -0.47500E+00  0.00000E+00  0.00000E+00  0.00000E+00    0.13959E+03  0.99906E+02 -0.23949E+03  0.48283E+01  0.47319E+01  0.23188E+03      982.00
  0.38904E+00  0.54531E+03    0.25000E+00  0.25000E+00 -0.50000E+00  0.00000E+00  0.00000E+00  0.00000E+00    0.14069E+03  0.10066E+03 -0.24135E+03  0.46266E+01  0.46329E+01  0.23450E+03      982.00
  0.40564E+00  0.54973E+03    0.26250E+00  0.26250E+00 -0.52500E+00  0.00000E+00  0.00000E+00  0.00000E+00    0.14162E+03  0.10132E+03 -0.24294E+03  0.44064E+01  0.45409E+01  0.23670E+03      982.00
  0.42221E+00  0.54977E+03    0.27500E+00  0.27500E+00 -0.55000E+00  0.00000E+00  0.00000E+00  0.00000E+00    0.14179E+03  0.10106E+03 -0.24285E+03  0.41676E+01  0.43163E+01  0.23678E+03      982.00
  0.43877E+00  0.55021E+03    0.28750E+00  0.28750E+00 -0.57500E+00  0.00000E+00  0.00000E+00  0.00000E+00    0.14183E+03  0.10109E+03 -0.24292E+03  0.40107E+01  0.41472E+01  0.23708E+03      982.00
  0.45533E+00  0.55041E+03    0.30000E+00  0.30000E+00 -0.60000E+00  0.00000E+00  0.00000E+00  0.00000E+00    0.14178E+03  0.10113E+03 -0.24291E+03  0.38613E+01  0.39889E+01  0.23725E+03      982.00
  0.47188E+00  0.55056E+03    0.31250E+00  0.31250E+00 -0.62500E+00  0.00000E+00  0.00000E+00  0.00000E+00    0.14173E+03  0.10117E+03 -0.24290E+03  0.37160E+01  0.38358E+01  0.23738E+03      982.00
  0.48843E+00  0.55070E+03    0.32500E+00  0.32500E+00 -0.65000E+00  0.00000E+00  0.00000E+00  0.00000E+00    0.14167E+03  0.10121E+03 -0.24288E+03  0.35760E+01  0.36864E+01  0.23751E+03      982.00
  0.50496E+00  0.55082E+03    0.33750E+00  0.33750E+00 -0.67500E+00  0.00000E+00  0.00000E+00  0.00000E+00    0.14161E+03  0.10126E+03 -0.24287E+03  0.34412E+01  0.35406E+01  0.23762E+03      982.00
  0.52150E+00  0.55093E+03    0.35000E+00  0.35000E+00 -0.70000E+00  0.00000E+00  0.00000E+00  0.00000E+00    0.14155E+03  0.10131E+03 -0.24286E+03  0.33114E+01  0.33985E+01  0.23772E+03      982.00
  0.53803E+00  0.55103E+03    0.36250E+00  0.36250E+00 -0.72500E+00  0.00000E+00  0.00000E+00  0.00000E+00    0.14149E+03  0.10136E+03 -0.24286E+03  0.31865E+01  0.32602E+01  0.23781E+03      982.00
  0.55456E+00  0.55113E+03    0.37500E+00  0.37500E+00 -0.75000E+00  0.00000E+00  0.00000E+00  0.00000E+00    0.14143E+03  0.10142E+03 -0.24285E+03  0.30664E+01  0.31255E+01  0.23790E+03      982.00
  0.57108E+00  0.55121E+03    0.38750E+00  0.38750E+00 -0.77500E+00  0.00000E+00  0.00000E+00  0.00000E+00    0.14136E+03  0.10148E+03 -0.24284E+03  0.29508E+01  0.29945E+01  0.23798E+03      982.00
  0.58760E+00  0.55137E+03    0.40000E+00  0.40000E+00 -0.80000E+00  0.00000E+00  0.00000E+00  0.00000E+00    0.14140E+03  0.10145E+03 -0.24285E+03  0.28419E+01  0.28611E+01  0.23809E+03      982.00
  0.60412E+00  0.55145E+03    0.41250E+00  0.41250E+00 -0.82500E+00  0.00000E+00  0.00000E+00  0.00000E+00    0.14128E+03  0.10157E+03 -0.24286E+03  0.27400E+01  0.27408E+01  0.23817E+03      982.00
  0.62063E+00  0.55151E+03    0.42500E+00  0.42500E+00 -0.85000E+00  0.00000E+00  0.00000E+00  0.00000E+00    0.14119E+03  0.10166E+03 -0.24285E+03  0.26361E+01  0.26185E+01  0.23822E+03      982.00
  0.63715E+00  0.55156E+03    0.43750E+00  0.43750E+00 -0.87500E+00  0.00000E+00  0.00000E+00  0.00000E+00    0.14111E+03  0.10174E+03 -0.24285E+03  0.25359E+01  0.24999E+01  0.23827E+03      982.00
  0.65366E+00  0.55160E+03    0.45000E+00  0.45000E+00 -0.90000E+00  0.00000E+00  0.00000E+00  0.00000E+00    0.14102E+03  0.10183E+03 -0.24285E+03  0.24395E+01  0.23849E+01  0.23831E+03      982.00
  0.67017E+00  0.55148E+03    0.46250E+00  0.46250E+00 -0.92500E+00  0.00000E+00  0.00000E+00  0.00000E+00    0.14084E+03  0.10197E+03 -0.24281E+03  0.23808E+01  0.23380E+01  0.23827E+03      982.00
  0.68668E+00  0.55166E+03    0.47500E+00  0.47500E+00 -0.95000E+00  0.00000E+00  0.00000E+00  0.00000E+00    0.14101E+03  0.10184E+03 -0.24284E+03  0.22470E+01  0.21558E+01  0.23837E+03      982.00
  0.70319E+00  0.55172E+03    0.48750E+00  0.48750E+00 -0.97500E+00  0.00000E+00  0.00000E+00  0.00000E+00    0.14087E+03  0.10198E+03 -0.24285E+03  0.21642E+01  0.20528E+01  0.23842E+03      982.00
  0.71969E+00  0.55175E+03    0.50000E+00  0.50000E+00 -0.10000E+01  0.00000E+00  0.00000E+00  0.00000E+00    0.14074E+03  0.10211E+03 -0.24285E+03  0.20854E+01  0.19542E+01  0.23846E+03      982.00
