          Evm          Svm            E11          E22          E33          E23          E13          E12         SDEV11       SDEV22       SDEV33       SDEV23       SDEV13       SDEV12      TEMP
  0.00000E+00  0.19080E+03    0.00000E+00  0.00000E+00  0.00000E+00  0.00000E+00  0.00000E+00  0.00000E+00    0.56554E+02  0.57734E+02 -0.11429E+03  0.12802E+02  0.16684E+02  0.43541E+02      982.00
  0.22462E-01  0.18851E+03    0.12500E-01  0.12500E-01 -0.25000E-01  0.00000E+00  0.00000E+00  0.00000E+00    0.55490E+02  0.57535E+02 -0.11303E+03  0.99075E+01  0.13708E+02  0.44464E+02      982.00
  0.44946E-01  0.17417E+03    0.25000E-01  0.25000E-01 -0.50000E-01  0.00000E+00  0.00000E+00  0.00000E+00    0.52790E+02  0.53236E+02 -0.10603E+03  0.66381E+01  0.97181E+01  0.39270E+02      982.00
  0.67775E-01  0.17305E+03    0.37500E-01  0.37500E-01 -0.75000E-01  0.00000E+00  0.00000E+00  0.00000E+00    0.52951E+02  0.52029E+02 -0.10498E+03  0.53324E+01  0.79815E+01  0.40304E+02      982.00
  0.90523E-01  0.18444E+03    0.50000E-01  0.50000E-01 -0.10000E+00  0.00000E+00  0.00000E+00  0.00000E+00    0.55795E+02  0.53813E+02 -0.10961E+03  0.51205E+01  0.76210E+01  0.47362E+02      982.00
  0.11281E+00  0.20678E+03    0.62500E-01  0.62500E-01 -0.12500E+00  0.00000E+00  0.00000E+00  0.00000E+00    0.60938E+02  0.57919E+02 -0.11886E+03  0.55163E+01  0.80260E+01  0.59664E+02      982.00
  0.13436E+00  0.24107E+03    0.75000E-01  0.75000E-01 -0.15000E+00  0.00000E+00  0.00000E+00  0.00000E+00    0.68458E+02  0.64261E+02 -0.13272E+03  0.63515E+01  0.89441E+01  0.77688E+02      982.00
  0.15501E+00  0.28676E+03    0.87500E-01  0.87500E-01 -0.17500E+00  0.00000E+00  0.00000E+00  0.00000E+00    0.78103E+02  0.72581E+02 -0.15068E+03  0.74895E+01  0.10194E+02  0.10106E+03      982.00
  0.17472E+00  0.33742E+03    0.10000E+00  0.10000E+00 -0.20000E+00  0.00000E+00  0.00000E+00  0.00000E+00    0.88504E+02  0.81695E+02 -0.17020E+03  0.86497E+01  0.11471E+02  0.12652E+03      982.00
  0.19363E+00  0.38309E+03    0.11250E+00  0.11250E+00 -0.22500E+00  0.00000E+00  0.00000E+00  0.00000E+00    0.97702E+02  0.89923E+02 -0.18762E+03  0.95596E+01  0.12496E+02  0.14918E+03      982.00
  0.21200E+00  0.41947E+03    0.12500E+00  0.12500E+00 -0.25000E+00  0.00000E+00  0.00000E+00  0.00000E+00    0.10489E+03  0.96576E+02 -0.20147E+03  0.10177E+02  0.13215E+02  0.16708E+03      982.00
  0.23001E+00  0.44727E+03    0.13750E+00  0.13750E+00 -0.27500E+00  0.00000E+00  0.00000E+00  0.00000E+00    0.11025E+03  0.10178E+03 -0.21204E+03  0.10573E+02  0.13687E+02  0.18069E+03      982.00
  0.24779E+00  0.46829E+03    0.15000E+00  0.15000E+00 -0.30000E+00  0.00000E+00  0.00000E+00  0.00000E+00    0.11416E+03  0.10583E+03 -0.21999E+03  0.10828E+02  0.13991E+02  0.19098E+03      982.00
  0.26540E+00  0.48486E+03    0.16250E+00  0.16250E+00 -0.32500E+00  0.00000E+00  0.00000E+00  0.00000E+00    0.11708E+03  0.10912E+03 -0.22620E+03  0.10980E+02  0.14165E+02  0.19913E+03      982.00
  0.28290E+00  0.49745E+03    0.17500E+00  0.17500E+00 -0.35000E+00  0.00000E+00  0.00000E+00  0.00000E+00    0.11916E+03  0.11168E+03 -0.23084E+03  0.11067E+02  0.14252E+02  0.20538E+03      982.00
  0.30030E+00  0.50767E+03    0.18750E+00  0.18750E+00 -0.37500E+00  0.00000E+00  0.00000E+00  0.00000E+00    0.12075E+03  0.11377E+03 -0.23451E+03  0.11105E+02  0.14263E+02  0.21053E+03      982.00
  0.31762E+00  0.51637E+03    0.20000E+00  0.20000E+00 -0.40000E+00  0.00000E+00  0.00000E+00  0.00000E+00    0.12193E+03  0.11559E+03 -0.23753E+03  0.11085E+02  0.14194E+02  0.21501E+03      982.00
  0.33487E+00  0.52362E+03    0.21250E+00  0.21250E+00 -0.42500E+00  0.00000E+00  0.00000E+00  0.00000E+00    0.12281E+03  0.11715E+03 -0.23996E+03  0.11023E+02  0.14069E+02  0.21882E+03      982.00
  0.35206E+00  0.52986E+03    0.22500E+00  0.22500E+00 -0.45000E+00  0.00000E+00  0.00000E+00  0.00000E+00    0.12344E+03  0.11850E+03 -0.24194E+03  0.10918E+02  0.13882E+02  0.22218E+03      982.00
  0.36918E+00  0.53515E+03    0.23750E+00  0.23750E+00 -0.47500E+00  0.00000E+00  0.00000E+00  0.00000E+00    0.12384E+03  0.11969E+03 -0.24353E+03  0.10773E+02  0.13644E+02  0.22511E+03      982.00
  0.38624E+00  0.53988E+03    0.25000E+00  0.25000E+00 -0.50000E+00  0.00000E+00  0.00000E+00  0.00000E+00    0.12412E+03  0.12075E+03 -0.24488E+03  0.10595E+02  0.13358E+02  0.22780E+03      982.00
  0.40325E+00  0.54408E+03    0.26250E+00  0.26250E+00 -0.52500E+00  0.00000E+00  0.00000E+00  0.00000E+00    0.12430E+03  0.12170E+03 -0.24600E+03  0.10384E+02  0.13030E+02  0.23023E+03      982.00
  0.42021E+00  0.54783E+03    0.27500E+00  0.27500E+00 -0.55000E+00  0.00000E+00  0.00000E+00  0.00000E+00    0.12439E+03  0.12256E+03 -0.24695E+03  0.10145E+02  0.12665E+02  0.23246E+03      982.00
  0.43711E+00  0.55122E+03    0.28750E+00  0.28750E+00 -0.57500E+00  0.00000E+00  0.00000E+00  0.00000E+00    0.12442E+03  0.12334E+03 -0.24775E+03  0.98824E+01  0.12268E+02  0.23451E+03      982.00
  0.45397E+00  0.55221E+03    0.30000E+00  0.30000E+00 -0.60000E+00  0.00000E+00  0.00000E+00  0.00000E+00    0.12402E+03  0.12359E+03 -0.24761E+03  0.95671E+01  0.11791E+02  0.23544E+03      982.00
  0.47078E+00  0.55318E+03    0.31250E+00  0.31250E+00 -0.62500E+00  0.00000E+00  0.00000E+00  0.00000E+00    0.12365E+03  0.12384E+03 -0.24749E+03  0.92545E+01  0.11325E+02  0.23633E+03      982.00
  0.48756E+00  0.55411E+03    0.32500E+00  0.32500E+00 -0.65000E+00  0.00000E+00  0.00000E+00  0.00000E+00    0.12334E+03  0.12404E+03 -0.24738E+03  0.89403E+01  0.10858E+02  0.23717E+03      982.00
  0.50430E+00  0.55504E+03    0.33750E+00  0.33750E+00 -0.67500E+00  0.00000E+00  0.00000E+00  0.00000E+00    0.12304E+03  0.12426E+03 -0.24730E+03  0.86344E+01  0.10409E+02  0.23799E+03      982.00
  0.52101E+00  0.55590E+03    0.35000E+00  0.35000E+00 -0.70000E+00  0.00000E+00  0.00000E+00  0.00000E+00    0.12278E+03  0.12445E+03 -0.24723E+03  0.83329E+01  0.99602E+01  0.23874E+03      982.00
  0.53769E+00  0.55678E+03    0.36250E+00  0.36250E+00 -0.72500E+00  0.00000E+00  0.00000E+00  0.00000E+00    0.12254E+03  0.12465E+03 -0.24719E+03  0.80361E+01  0.95297E+01  0.23948E+03      982.00
  0.55434E+00  0.55756E+03    0.37500E+00  0.37500E+00 -0.75000E+00  0.00000E+00  0.00000E+00  0.00000E+00    0.12234E+03  0.12481E+03 -0.24715E+03  0.77541E+01  0.91062E+01  0.24014E+03      982.00
  0.57096E+00  0.55839E+03    0.38750E+00  0.38750E+00 -0.77500E+00  0.00000E+00  0.00000E+00  0.00000E+00    0.12214E+03  0.12501E+03 -0.24715E+03  0.74687E+01  0.86886E+01  0.24081E+03      982.00
  0.58756E+00  0.55908E+03    0.40000E+00  0.40000E+00 -0.80000E+00  0.00000E+00  0.00000E+00  0.00000E+00    0.12199E+03  0.12515E+03 -0.24713E+03  0.72097E+01  0.82956E+01  0.24138E+03      982.00
  0.60413E+00  0.55974E+03    0.41250E+00  0.41250E+00 -0.82500E+00  0.00000E+00  0.00000E+00  0.00000E+00    0.12186E+03  0.12526E+03 -0.24712E+03  0.69621E+01  0.79189E+01  0.24191E+03      982.00
  0.62069E+00  0.56046E+03    0.42500E+00  0.42500E+00 -0.85000E+00  0.00000E+00  0.00000E+00  0.00000E+00    0.12172E+03  0.12544E+03 -0.24716E+03  0.66934E+01  0.75126E+01  0.24246E+03      982.00
  0.63723E+00  0.56103E+03    0.43750E+00  0.43750E+00 -0.87500E+00  0.00000E+00  0.00000E+00  0.00000E+00    0.12162E+03  0.12554E+03 -0.24716E+03  0.64688E+01  0.71692E+01  0.24291E+03      982.00
  0.65375E+00  0.56156E+03    0.45000E+00  0.45000E+00 -0.90000E+00  0.00000E+00  0.00000E+00  0.00000E+00    0.12154E+03  0.12563E+03 -0.24718E+03  0.62542E+01  0.68407E+01  0.24332E+03      982.00
  0.67025E+00  0.56207E+03    0.46250E+00  0.46250E+00 -0.92500E+00  0.00000E+00  0.00000E+00  0.00000E+00    0.12148E+03  0.12572E+03 -0.24720E+03  0.60536E+01  0.65334E+01  0.24370E+03      982.00
  0.68674E+00  0.56260E+03    0.47500E+00  0.47500E+00 -0.95000E+00  0.00000E+00  0.00000E+00  0.00000E+00    0.12145E+03  0.12583E+03 -0.24727E+03  0.58014E+01  0.61501E+01  0.24408E+03      982.00
  0.70323E+00  0.56304E+03    0.48750E+00  0.48750E+00 -0.97500E+00  0.00000E+00  0.00000E+00  0.00000E+00    0.12140E+03  0.12590E+03 -0.24730E+03  0.56130E+01  0.58634E+01  0.24440E+03      982.00
  0.71970E+00  0.56344E+03    0.50000E+00  0.50000E+00 -0.10000E+01  0.00000E+00  0.00000E+00  0.00000E+00    0.12138E+03  0.12595E+03 -0.24733E+03  0.54365E+01  0.55945E+01  0.24470E+03      982.00
