          Evm          Svm            E11          E22          E33          E23          E13          E12         SDEV11       SDEV22       SDEV33       SDEV23       SDEV13       SDEV12      TEMP
  0.00000E+00  0.16374E+03    0.00000E+00  0.00000E+00  0.00000E+00  0.00000E+00  0.00000E+00  0.00000E+00    0.55294E+02  0.49109E+02 -0.10440E+03  0.12095E+02  0.12347E+02  0.21291E+02      982.00
  0.23911E-01  0.16400E+03    0.12500E-01  0.12500E-01 -0.25000E-01  0.00000E+00  0.00000E+00  0.00000E+00    0.54720E+02  0.49525E+02 -0.10425E+03  0.11256E+02  0.11904E+02  0.23236E+02      982.00
  0.47747E-01  0.16883E+03    0.25000E-01  0.25000E-01 -0.50000E-01  0.00000E+00  0.00000E+00  0.00000E+00    0.55077E+02  0.51467E+02 -0.10654E+03  0.11141E+02  0.11843E+02  0.26821E+02      982.00
  0.71413E-01  0.17866E+03    0.37500E-01  0.37500E-01 -0.75000E-01  0.00000E+00  0.00000E+00  0.00000E+00    0.56391E+02  0.55042E+02 -0.11143E+03  0.11547E+02  0.12053E+02  0.32372E+02      982.00
  0.94802E-01  0.19399E+03    0.50000E-01  0.50000E-01 -0.10000E+00  0.00000E+00  0.00000E+00  0.00000E+00    0.58684E+02  0.60297E+02 -0.11898E+03  0.12247E+02  0.12416E+02  0.40267E+02      982.00
  0.11780E+00  0.21531E+03    0.62500E-01  0.62500E-01 -0.12500E+00  0.00000E+00  0.00000E+00  0.00000E+00    0.62023E+02  0.67194E+02 -0.12922E+03  0.13045E+02  0.12822E+02  0.50882E+02      982.00
  0.14031E+00  0.24280E+03    0.75000E-01  0.75000E-01 -0.15000E+00  0.00000E+00  0.00000E+00  0.00000E+00    0.66483E+02  0.75536E+02 -0.14202E+03  0.13748E+02  0.13143E+02  0.64351E+02      982.00
  0.16224E+00  0.27572E+03    0.87500E-01  0.87500E-01 -0.17500E+00  0.00000E+00  0.00000E+00  0.00000E+00    0.71982E+02  0.84924E+02 -0.15691E+03  0.14195E+02  0.13234E+02  0.80362E+02      982.00
  0.18358E+00  0.31113E+03    0.10000E+00  0.10000E+00 -0.20000E+00  0.00000E+00  0.00000E+00  0.00000E+00    0.78078E+02  0.94491E+02 -0.17257E+03  0.14249E+02  0.12971E+02  0.97439E+02      982.00
  0.20438E+00  0.34517E+03    0.11250E+00  0.11250E+00 -0.22500E+00  0.00000E+00  0.00000E+00  0.00000E+00    0.84025E+02  0.10333E+03 -0.18736E+03  0.13845E+02  0.12315E+02  0.11380E+03      982.00
  0.22474E+00  0.37464E+03    0.12500E+00  0.12500E+00 -0.25000E+00  0.00000E+00  0.00000E+00  0.00000E+00    0.89235E+02  0.11094E+03 -0.20018E+03  0.13224E+02  0.11446E+02  0.12770E+03      982.00
  0.24477E+00  0.39947E+03    0.13750E+00  0.13750E+00 -0.27500E+00  0.00000E+00  0.00000E+00  0.00000E+00    0.93485E+02  0.11745E+03 -0.21093E+03  0.12315E+02  0.10392E+02  0.13935E+03      982.00
  0.26458E+00  0.41934E+03    0.15000E+00  0.15000E+00 -0.30000E+00  0.00000E+00  0.00000E+00  0.00000E+00    0.96745E+02  0.12289E+03 -0.21963E+03  0.11287E+02  0.93004E+01  0.14850E+03      982.00
  0.28422E+00  0.43549E+03    0.16250E+00  0.16250E+00 -0.32500E+00  0.00000E+00  0.00000E+00  0.00000E+00    0.99144E+02  0.12763E+03 -0.22677E+03  0.10170E+02  0.82062E+01  0.15580E+03      982.00
  0.30374E+00  0.44695E+03    0.17500E+00  0.17500E+00 -0.35000E+00  0.00000E+00  0.00000E+00  0.00000E+00    0.10077E+03  0.13126E+03 -0.23203E+03  0.90855E+01  0.71945E+01  0.16076E+03      982.00
  0.32321E+00  0.45540E+03    0.18750E+00  0.18750E+00 -0.37500E+00  0.00000E+00  0.00000E+00  0.00000E+00    0.10182E+03  0.13422E+03 -0.23605E+03  0.80534E+01  0.62756E+01  0.16424E+03      982.00
  0.34265E+00  0.46070E+03    0.20000E+00  0.20000E+00 -0.40000E+00  0.00000E+00  0.00000E+00  0.00000E+00    0.10243E+03  0.13639E+03 -0.23882E+03  0.71838E+01  0.55198E+01  0.16613E+03      982.00
  0.36209E+00  0.46261E+03    0.21250E+00  0.21250E+00 -0.42500E+00  0.00000E+00  0.00000E+00  0.00000E+00    0.10295E+03  0.13737E+03 -0.24032E+03  0.66550E+01  0.50130E+01  0.16629E+03      982.00
  0.38157E+00  0.46206E+03    0.22500E+00  0.22500E+00 -0.45000E+00  0.00000E+00  0.00000E+00  0.00000E+00    0.10362E+03  0.13737E+03 -0.24099E+03  0.64204E+01  0.46814E+01  0.16511E+03      982.00
  0.40113E+00  0.46093E+03    0.23750E+00  0.23750E+00 -0.47500E+00  0.00000E+00  0.00000E+00  0.00000E+00    0.10423E+03  0.13716E+03 -0.24139E+03  0.61393E+01  0.43268E+01  0.16367E+03      982.00
  0.42077E+00  0.45944E+03    0.25000E+00  0.25000E+00 -0.50000E+00  0.00000E+00  0.00000E+00  0.00000E+00    0.10482E+03  0.13687E+03 -0.24169E+03  0.58044E+01  0.39488E+01  0.16200E+03      982.00
  0.44049E+00  0.45767E+03    0.26250E+00  0.26250E+00 -0.52500E+00  0.00000E+00  0.00000E+00  0.00000E+00    0.10533E+03  0.13660E+03 -0.24193E+03  0.54081E+01  0.35478E+01  0.16012E+03      982.00
  0.46032E+00  0.45213E+03    0.27500E+00  0.27500E+00 -0.55000E+00  0.00000E+00  0.00000E+00  0.00000E+00    0.10508E+03  0.13542E+03 -0.24050E+03  0.51698E+01  0.33265E+01  0.15651E+03      982.00
  0.48026E+00  0.44679E+03    0.28750E+00  0.28750E+00 -0.57500E+00  0.00000E+00  0.00000E+00  0.00000E+00    0.10482E+03  0.13433E+03 -0.23916E+03  0.48685E+01  0.30713E+01  0.15295E+03      982.00
  0.50034E+00  0.44163E+03    0.30000E+00  0.30000E+00 -0.60000E+00  0.00000E+00  0.00000E+00  0.00000E+00    0.10457E+03  0.13336E+03 -0.23793E+03  0.45293E+01  0.27946E+01  0.14940E+03      982.00
  0.52054E+00  0.43651E+03    0.31250E+00  0.31250E+00 -0.62500E+00  0.00000E+00  0.00000E+00  0.00000E+00    0.10432E+03  0.13243E+03 -0.23674E+03  0.41956E+01  0.25311E+01  0.14580E+03      982.00
  0.54088E+00  0.43142E+03    0.32500E+00  0.32500E+00 -0.65000E+00  0.00000E+00  0.00000E+00  0.00000E+00    0.10407E+03  0.13154E+03 -0.23561E+03  0.38783E+01  0.22843E+01  0.14212E+03      982.00
  0.56136E+00  0.42637E+03    0.33750E+00  0.33750E+00 -0.67500E+00  0.00000E+00  0.00000E+00  0.00000E+00    0.10383E+03  0.13070E+03 -0.23453E+03  0.35868E+01  0.20608E+01  0.13838E+03      982.00
  0.58198E+00  0.42125E+03    0.35000E+00  0.35000E+00 -0.70000E+00  0.00000E+00  0.00000E+00  0.00000E+00    0.10361E+03  0.12984E+03 -0.23345E+03  0.33453E+01  0.18770E+01  0.13449E+03      982.00
  0.60277E+00  0.41618E+03    0.36250E+00  0.36250E+00 -0.72500E+00  0.00000E+00  0.00000E+00  0.00000E+00    0.10342E+03  0.12901E+03 -0.23243E+03  0.31414E+01  0.17239E+01  0.13054E+03      982.00
  0.62371E+00  0.41097E+03    0.37500E+00  0.37500E+00 -0.75000E+00  0.00000E+00  0.00000E+00  0.00000E+00    0.10325E+03  0.12815E+03 -0.23139E+03  0.30033E+01  0.16220E+01  0.12640E+03      982.00
  0.64482E+00  0.40599E+03    0.38750E+00  0.38750E+00 -0.77500E+00  0.00000E+00  0.00000E+00  0.00000E+00    0.10312E+03  0.12733E+03 -0.23045E+03  0.28994E+01  0.15473E+01  0.12229E+03      982.00
  0.66611E+00  0.40110E+03    0.40000E+00  0.40000E+00 -0.80000E+00  0.00000E+00  0.00000E+00  0.00000E+00    0.10303E+03  0.12653E+03 -0.22956E+03  0.28461E+01  0.15115E+01  0.11813E+03      982.00
  0.68757E+00  0.39636E+03    0.41250E+00  0.41250E+00 -0.82500E+00  0.00000E+00  0.00000E+00  0.00000E+00    0.10299E+03  0.12576E+03 -0.22875E+03  0.28412E+01  0.15134E+01  0.11394E+03      982.00
  0.70921E+00  0.39160E+03    0.42500E+00  0.42500E+00 -0.85000E+00  0.00000E+00  0.00000E+00  0.00000E+00    0.10299E+03  0.12495E+03 -0.22794E+03  0.29147E+01  0.15734E+01  0.10962E+03      982.00
  0.73104E+00  0.38728E+03    0.43750E+00  0.43750E+00 -0.87500E+00  0.00000E+00  0.00000E+00  0.00000E+00    0.10305E+03  0.12425E+03 -0.22730E+03  0.29972E+01  0.16428E+01  0.10547E+03      982.00
  0.75305E+00  0.38322E+03    0.45000E+00  0.45000E+00 -0.90000E+00  0.00000E+00  0.00000E+00  0.00000E+00    0.10317E+03  0.12359E+03 -0.22675E+03  0.31178E+01  0.17419E+01  0.10135E+03      982.00
  0.77524E+00  0.37938E+03    0.46250E+00  0.46250E+00 -0.92500E+00  0.00000E+00  0.00000E+00  0.00000E+00    0.10333E+03  0.12295E+03 -0.22629E+03  0.32898E+01  0.18781E+01  0.97270E+02      982.00
  0.79761E+00  0.37592E+03    0.47500E+00  0.47500E+00 -0.95000E+00  0.00000E+00  0.00000E+00  0.00000E+00    0.10357E+03  0.12240E+03 -0.22597E+03  0.34711E+01  0.20245E+01  0.93307E+02      982.00
  0.82015E+00  0.37280E+03    0.48750E+00  0.48750E+00 -0.97500E+00  0.00000E+00  0.00000E+00  0.00000E+00    0.10386E+03  0.12191E+03 -0.22576E+03  0.36754E+01  0.21891E+01  0.89444E+02      982.00
  0.84286E+00  0.37001E+03    0.50000E+00  0.50000E+00 -0.10000E+01  0.00000E+00  0.00000E+00  0.00000E+00    0.10420E+03  0.12147E+03 -0.22568E+03  0.38975E+01  0.23678E+01  0.85692E+02      982.00
