          Evm          Svm            E11          E22          E33          E23          E13          E12         SDEV11       SDEV22       SDEV33       SDEV23       SDEV13       SDEV12      TEMP
  0.00000E+00  0.19680E+03    0.00000E+00  0.00000E+00  0.00000E+00  0.00000E+00  0.00000E+00  0.00000E+00    0.46440E+02  0.82354E+02 -0.12879E+03  0.93649E+01  0.27784E+01  0.71750E+01      982.00
  0.24541E-01  0.18984E+03    0.12500E-01  0.12500E-01 -0.25000E-01  0.00000E+00  0.00000E+00  0.00000E+00    0.43985E+02  0.80245E+02 -0.12423E+03  0.72409E+01  0.22315E+01  0.72542E+01      982.00
  0.49081E-01  0.18797E+03    0.25000E-01  0.25000E-01 -0.50000E-01  0.00000E+00  0.00000E+00  0.00000E+00    0.42233E+02  0.80567E+02 -0.12280E+03  0.61478E+01  0.19383E+01  0.76749E+01      982.00
  0.73579E-01  0.19365E+03    0.37500E-01  0.37500E-01 -0.75000E-01  0.00000E+00  0.00000E+00  0.00000E+00    0.41038E+02  0.84936E+02 -0.12597E+03  0.60004E+01  0.18879E+01  0.87645E+01      982.00
  0.97974E-01  0.20744E+03    0.50000E-01  0.50000E-01 -0.10000E+00  0.00000E+00  0.00000E+00  0.00000E+00    0.40057E+02  0.93905E+02 -0.13396E+03  0.64796E+01  0.20121E+01  0.10667E+02      982.00
  0.12219E+00  0.22850E+03    0.62500E-01  0.62500E-01 -0.12500E+00  0.00000E+00  0.00000E+00  0.00000E+00    0.39101E+02  0.10703E+03 -0.14613E+03  0.73009E+01  0.22608E+01  0.13272E+02      982.00
  0.14617E+00  0.25350E+03    0.75000E-01  0.75000E-01 -0.15000E+00  0.00000E+00  0.00000E+00  0.00000E+00    0.38283E+02  0.12224E+03 -0.16053E+03  0.81746E+01  0.25845E+01  0.16081E+02      982.00
  0.16992E+00  0.27797E+03    0.87500E-01  0.87500E-01 -0.17500E+00  0.00000E+00  0.00000E+00  0.00000E+00    0.37947E+02  0.13674E+03 -0.17468E+03  0.89263E+01  0.29403E+01  0.18486E+02      982.00
  0.19349E+00  0.29904E+03    0.10000E+00  0.10000E+00 -0.20000E+00  0.00000E+00  0.00000E+00  0.00000E+00    0.38299E+02  0.14877E+03 -0.18707E+03  0.95441E+01  0.33002E+01  0.20207E+02      982.00
  0.21694E+00  0.31593E+03    0.11250E+00  0.11250E+00 -0.22500E+00  0.00000E+00  0.00000E+00  0.00000E+00    0.39360E+02  0.15792E+03 -0.19728E+03  0.10092E+02  0.36515E+01  0.21261E+02      982.00
  0.24036E+00  0.32898E+03    0.12500E+00  0.12500E+00 -0.25000E+00  0.00000E+00  0.00000E+00  0.00000E+00    0.40993E+02  0.16448E+03 -0.20548E+03  0.10579E+02  0.39772E+01  0.21713E+02      982.00
  0.26378E+00  0.33898E+03    0.13750E+00  0.13750E+00 -0.27500E+00  0.00000E+00  0.00000E+00  0.00000E+00    0.43081E+02  0.16897E+03 -0.21205E+03  0.11107E+02  0.42980E+01  0.21769E+02      982.00
  0.28724E+00  0.34696E+03    0.15000E+00  0.15000E+00 -0.30000E+00  0.00000E+00  0.00000E+00  0.00000E+00    0.45663E+02  0.17195E+03 -0.21761E+03  0.11716E+02  0.46284E+01  0.21576E+02      982.00
  0.31076E+00  0.35333E+03    0.16250E+00  0.16250E+00 -0.32500E+00  0.00000E+00  0.00000E+00  0.00000E+00    0.48484E+02  0.17382E+03 -0.22231E+03  0.12342E+02  0.49461E+01  0.21100E+02      982.00
  0.33435E+00  0.35871E+03    0.17500E+00  0.17500E+00 -0.35000E+00  0.00000E+00  0.00000E+00  0.00000E+00    0.51571E+02  0.17491E+03 -0.22649E+03  0.13023E+02  0.52680E+01  0.20452E+02      982.00
  0.35803E+00  0.36330E+03    0.18750E+00  0.18750E+00 -0.37500E+00  0.00000E+00  0.00000E+00  0.00000E+00    0.54889E+02  0.17536E+03 -0.23025E+03  0.13803E+02  0.56034E+01  0.19620E+02      982.00
  0.38180E+00  0.36756E+03    0.20000E+00  0.20000E+00 -0.40000E+00  0.00000E+00  0.00000E+00  0.00000E+00    0.58389E+02  0.17545E+03 -0.23384E+03  0.14610E+02  0.59346E+01  0.18698E+02      982.00
  0.40565E+00  0.37161E+03    0.21250E+00  0.21250E+00 -0.42500E+00  0.00000E+00  0.00000E+00  0.00000E+00    0.62107E+02  0.17521E+03 -0.23732E+03  0.15619E+02  0.63026E+01  0.17634E+02      982.00
  0.42960E+00  0.37562E+03    0.22500E+00  0.22500E+00 -0.45000E+00  0.00000E+00  0.00000E+00  0.00000E+00    0.66012E+02  0.17476E+03 -0.24077E+03  0.16735E+02  0.66732E+01  0.16486E+02      982.00
  0.45364E+00  0.37971E+03    0.23750E+00  0.23750E+00 -0.47500E+00  0.00000E+00  0.00000E+00  0.00000E+00    0.70149E+02  0.17411E+03 -0.24426E+03  0.18113E+02  0.70752E+01  0.15228E+02      982.00
  0.47776E+00  0.38402E+03    0.25000E+00  0.25000E+00 -0.50000E+00  0.00000E+00  0.00000E+00  0.00000E+00    0.74528E+02  0.17333E+03 -0.24786E+03  0.19805E+02  0.75039E+01  0.13855E+02      982.00
  0.50197E+00  0.38649E+03    0.26250E+00  0.26250E+00 -0.52500E+00  0.00000E+00  0.00000E+00  0.00000E+00    0.78389E+02  0.17182E+03 -0.25021E+03  0.20970E+02  0.77092E+01  0.12484E+02      982.00
  0.52624E+00  0.38925E+03    0.27500E+00  0.27500E+00 -0.55000E+00  0.00000E+00  0.00000E+00  0.00000E+00    0.82237E+02  0.17044E+03 -0.25267E+03  0.22164E+02  0.78844E+01  0.11098E+02      982.00
  0.55059E+00  0.39232E+03    0.28750E+00  0.28750E+00 -0.57500E+00  0.00000E+00  0.00000E+00  0.00000E+00    0.86015E+02  0.16925E+03 -0.25526E+03  0.23374E+02  0.80291E+01  0.96759E+01      982.00
  0.57499E+00  0.39553E+03    0.30000E+00  0.30000E+00 -0.60000E+00  0.00000E+00  0.00000E+00  0.00000E+00    0.89652E+02  0.16821E+03 -0.25787E+03  0.24515E+02  0.81127E+01  0.82185E+01      982.00
  0.59943E+00  0.39880E+03    0.31250E+00  0.31250E+00 -0.62500E+00  0.00000E+00  0.00000E+00  0.00000E+00    0.93107E+02  0.16736E+03 -0.26046E+03  0.25336E+02  0.81440E+01  0.68196E+01      982.00
  0.62393E+00  0.40212E+03    0.32500E+00  0.32500E+00 -0.65000E+00  0.00000E+00  0.00000E+00  0.00000E+00    0.96395E+02  0.16665E+03 -0.26304E+03  0.26020E+02  0.81260E+01  0.54507E+01      982.00
  0.64846E+00  0.40565E+03    0.33750E+00  0.33750E+00 -0.67500E+00  0.00000E+00  0.00000E+00  0.00000E+00    0.99599E+02  0.16612E+03 -0.26572E+03  0.26620E+02  0.81032E+01  0.41450E+01      982.00
  0.67302E+00  0.40899E+03    0.35000E+00  0.35000E+00 -0.70000E+00  0.00000E+00  0.00000E+00  0.00000E+00    0.10254E+03  0.16568E+03 -0.26822E+03  0.27039E+02  0.80101E+01  0.28065E+01      982.00
  0.69761E+00  0.41245E+03    0.36250E+00  0.36250E+00 -0.72500E+00  0.00000E+00  0.00000E+00  0.00000E+00    0.10539E+03  0.16539E+03 -0.27078E+03  0.27360E+02  0.79282E+01  0.15399E+01      982.00
  0.72223E+00  0.41586E+03    0.37500E+00  0.37500E+00 -0.75000E+00  0.00000E+00  0.00000E+00  0.00000E+00    0.10811E+03  0.16517E+03 -0.27328E+03  0.27554E+02  0.78373E+01  0.36277E+00      982.00
  0.74688E+00  0.41919E+03    0.38750E+00  0.38750E+00 -0.77500E+00  0.00000E+00  0.00000E+00  0.00000E+00    0.11070E+03  0.16500E+03 -0.27570E+03  0.27656E+02  0.77399E+01 -0.73184E+00      982.00
  0.77154E+00  0.42242E+03    0.40000E+00  0.40000E+00 -0.80000E+00  0.00000E+00  0.00000E+00  0.00000E+00    0.11318E+03  0.16487E+03 -0.27805E+03  0.27659E+02  0.76410E+01 -0.17190E+01      982.00
  0.79622E+00  0.42554E+03    0.41250E+00  0.41250E+00 -0.82500E+00  0.00000E+00  0.00000E+00  0.00000E+00    0.11556E+03  0.16476E+03 -0.28031E+03  0.27577E+02  0.75437E+01 -0.25935E+01      982.00
  0.82093E+00  0.42858E+03    0.42500E+00  0.42500E+00 -0.85000E+00  0.00000E+00  0.00000E+00  0.00000E+00    0.11783E+03  0.16468E+03 -0.28251E+03  0.27421E+02  0.74489E+01 -0.33605E+01      982.00
  0.84564E+00  0.43118E+03    0.43750E+00  0.43750E+00 -0.87500E+00  0.00000E+00  0.00000E+00  0.00000E+00    0.11989E+03  0.16453E+03 -0.28441E+03  0.27104E+02  0.73324E+01 -0.40227E+01      982.00
  0.87038E+00  0.43440E+03    0.45000E+00  0.45000E+00 -0.90000E+00  0.00000E+00  0.00000E+00  0.00000E+00    0.12211E+03  0.16459E+03 -0.28670E+03  0.26966E+02  0.72996E+01 -0.46274E+01      982.00
  0.89513E+00  0.43735E+03    0.46250E+00  0.46250E+00 -0.92500E+00  0.00000E+00  0.00000E+00  0.00000E+00    0.12418E+03  0.16462E+03 -0.28880E+03  0.26775E+02  0.72472E+01 -0.51033E+01      982.00
  0.91989E+00  0.44001E+03    0.47500E+00  0.47500E+00 -0.95000E+00  0.00000E+00  0.00000E+00  0.00000E+00    0.12611E+03  0.16459E+03 -0.29070E+03  0.26507E+02  0.71858E+01 -0.54936E+01      982.00
  0.94467E+00  0.44229E+03    0.48750E+00  0.48750E+00 -0.97500E+00  0.00000E+00  0.00000E+00  0.00000E+00    0.12782E+03  0.16453E+03 -0.29235E+03  0.26134E+02  0.71100E+01 -0.58086E+01      982.00
  0.96946E+00  0.44473E+03    0.50000E+00  0.50000E+00 -0.10000E+01  0.00000E+00  0.00000E+00  0.00000E+00    0.12956E+03  0.16453E+03 -0.29409E+03  0.25842E+02  0.70590E+01 -0.60972E+01      982.00
