          Evm          Svm            E11          E22          E33          E23          E13          E12         SDEV11       SDEV22       SDEV33       SDEV23       SDEV13       SDEV12      TEMP
  0.00000E+00  0.14429E+03    0.00000E+00  0.00000E+00  0.00000E+00  0.00000E+00  0.00000E+00  0.00000E+00    0.53192E+02  0.40338E+02 -0.93530E+02 -0.84189E+01 -0.78206E+01  0.14340E+02      982.00
  0.24308E-01  0.14373E+03    0.12500E-01  0.12500E-01 -0.25000E-01  0.00000E+00  0.00000E+00  0.00000E+00    0.52394E+02  0.40614E+02 -0.93008E+02 -0.75766E+01 -0.77530E+01  0.15679E+02      982.00
  0.48574E-01  0.14808E+03    0.25000E-01  0.25000E-01 -0.50000E-01  0.00000E+00  0.00000E+00  0.00000E+00    0.52302E+02  0.43019E+02 -0.95322E+02 -0.73254E+01 -0.80050E+01  0.18844E+02      982.00
  0.72714E-01  0.16017E+03    0.37500E-01  0.37500E-01 -0.75000E-01  0.00000E+00  0.00000E+00  0.00000E+00    0.52872E+02  0.48952E+02 -0.10182E+03 -0.76571E+01 -0.86022E+01  0.25271E+02      982.00
  0.96554E-01  0.18661E+03    0.50000E-01  0.50000E-01 -0.10000E+00  0.00000E+00  0.00000E+00  0.00000E+00    0.53638E+02  0.61689E+02 -0.11533E+03 -0.85976E+01 -0.97119E+01  0.38050E+02      982.00
  0.11973E+00  0.23434E+03    0.62500E-01  0.62500E-01 -0.12500E+00  0.00000E+00  0.00000E+00  0.00000E+00    0.52358E+02  0.85149E+02 -0.13751E+03 -0.90777E+01 -0.11270E+02  0.60383E+02      982.00
  0.14173E+00  0.26595E+03    0.75000E-01  0.75000E-01 -0.15000E+00  0.00000E+00  0.00000E+00  0.00000E+00    0.51983E+02  0.98742E+02 -0.15072E+03 -0.79463E+01 -0.11810E+02  0.76079E+02      982.00
  0.16299E+00  0.28738E+03    0.87500E-01  0.87500E-01 -0.17500E+00  0.00000E+00  0.00000E+00  0.00000E+00    0.55764E+02  0.10394E+03 -0.15970E+03 -0.85081E+01 -0.11838E+02  0.87223E+02      982.00
  0.18383E+00  0.31359E+03    0.10000E+00  0.10000E+00 -0.20000E+00  0.00000E+00  0.00000E+00  0.00000E+00    0.60755E+02  0.11011E+03 -0.17086E+03 -0.98182E+01 -0.11759E+02  0.10020E+03      982.00
  0.20426E+00  0.34302E+03    0.11250E+00  0.11250E+00 -0.22500E+00  0.00000E+00  0.00000E+00  0.00000E+00    0.66321E+02  0.11716E+03 -0.18348E+03 -0.11202E+02 -0.11632E+02  0.11431E+03      982.00
  0.22432E+00  0.37162E+03    0.12500E+00  0.12500E+00 -0.25000E+00  0.00000E+00  0.00000E+00  0.00000E+00    0.71876E+02  0.12392E+03 -0.19579E+03 -0.12313E+02 -0.11397E+02  0.12777E+03      982.00
  0.24408E+00  0.39666E+03    0.13750E+00  0.13750E+00 -0.27500E+00  0.00000E+00  0.00000E+00  0.00000E+00    0.76979E+02  0.12967E+03 -0.20665E+03 -0.13071E+02 -0.11044E+02  0.13940E+03      982.00
  0.26361E+00  0.41737E+03    0.15000E+00  0.15000E+00 -0.30000E+00  0.00000E+00  0.00000E+00  0.00000E+00    0.81376E+02  0.13433E+03 -0.21571E+03 -0.13511E+02 -0.10598E+02  0.14890E+03      982.00
  0.28299E+00  0.43403E+03    0.16250E+00  0.16250E+00 -0.32500E+00  0.00000E+00  0.00000E+00  0.00000E+00    0.85014E+02  0.13806E+03 -0.22308E+03 -0.13702E+02 -0.10090E+02  0.15645E+03      982.00
  0.30227E+00  0.44726E+03    0.17500E+00  0.17500E+00 -0.35000E+00  0.00000E+00  0.00000E+00  0.00000E+00    0.88029E+02  0.14098E+03 -0.22901E+03 -0.13713E+02 -0.95511E+01  0.16238E+03      982.00
  0.32147E+00  0.45775E+03    0.18750E+00  0.18750E+00 -0.37500E+00  0.00000E+00  0.00000E+00  0.00000E+00    0.90575E+02  0.14322E+03 -0.23379E+03 -0.13594E+02 -0.90017E+01  0.16701E+03      982.00
  0.34062E+00  0.46602E+03    0.20000E+00  0.20000E+00 -0.40000E+00  0.00000E+00  0.00000E+00  0.00000E+00    0.92691E+02  0.14495E+03 -0.23764E+03 -0.13375E+02 -0.84438E+01  0.17059E+03      982.00
  0.35974E+00  0.47247E+03    0.21250E+00  0.21250E+00 -0.42500E+00  0.00000E+00  0.00000E+00  0.00000E+00    0.94510E+02  0.14623E+03 -0.24074E+03 -0.13089E+02 -0.78861E+01  0.17332E+03      982.00
  0.37885E+00  0.47759E+03    0.22500E+00  0.22500E+00 -0.45000E+00  0.00000E+00  0.00000E+00  0.00000E+00    0.96125E+02  0.14715E+03 -0.24328E+03 -0.12738E+02 -0.73388E+01  0.17543E+03      982.00
  0.39795E+00  0.48148E+03    0.23750E+00  0.23750E+00 -0.47500E+00  0.00000E+00  0.00000E+00  0.00000E+00    0.97536E+02  0.14779E+03 -0.24532E+03 -0.12342E+02 -0.67964E+01  0.17694E+03      982.00
  0.41706E+00  0.48000E+03    0.25000E+00  0.25000E+00 -0.50000E+00  0.00000E+00  0.00000E+00  0.00000E+00    0.97771E+02  0.14722E+03 -0.24499E+03 -0.11877E+02 -0.64045E+01  0.17604E+03      982.00
  0.43620E+00  0.47841E+03    0.26250E+00  0.26250E+00 -0.52500E+00  0.00000E+00  0.00000E+00  0.00000E+00    0.98154E+02  0.14648E+03 -0.24464E+03 -0.11416E+02 -0.60260E+01  0.17509E+03      982.00
  0.45538E+00  0.47674E+03    0.27500E+00  0.27500E+00 -0.55000E+00  0.00000E+00  0.00000E+00  0.00000E+00    0.98588E+02  0.14569E+03 -0.24428E+03 -0.10950E+02 -0.56648E+01  0.17406E+03      982.00
  0.47459E+00  0.47497E+03    0.28750E+00  0.28750E+00 -0.57500E+00  0.00000E+00  0.00000E+00  0.00000E+00    0.99078E+02  0.14483E+03 -0.24391E+03 -0.10475E+02 -0.53089E+01  0.17297E+03      982.00
  0.49385E+00  0.47294E+03    0.30000E+00  0.30000E+00 -0.60000E+00  0.00000E+00  0.00000E+00  0.00000E+00    0.99704E+02  0.14378E+03 -0.24348E+03 -0.10002E+02 -0.49763E+01  0.17172E+03      982.00
  0.51315E+00  0.47083E+03    0.31250E+00  0.31250E+00 -0.62500E+00  0.00000E+00  0.00000E+00  0.00000E+00    0.10039E+03  0.14267E+03 -0.24306E+03 -0.95055E+01 -0.46543E+01  0.17037E+03      982.00
  0.53251E+00  0.46843E+03    0.32500E+00  0.32500E+00 -0.65000E+00  0.00000E+00  0.00000E+00  0.00000E+00    0.10118E+03  0.14138E+03 -0.24256E+03 -0.90216E+01 -0.43580E+01  0.16885E+03      982.00
  0.55193E+00  0.46575E+03    0.33750E+00  0.33750E+00 -0.67500E+00  0.00000E+00  0.00000E+00  0.00000E+00    0.10198E+03  0.14000E+03 -0.24198E+03 -0.85362E+01 -0.40757E+01  0.16716E+03      982.00
  0.57141E+00  0.46289E+03    0.35000E+00  0.35000E+00 -0.70000E+00  0.00000E+00  0.00000E+00  0.00000E+00    0.10289E+03  0.13849E+03 -0.24138E+03 -0.80440E+01 -0.38142E+01  0.16531E+03      982.00
  0.59097E+00  0.45977E+03    0.36250E+00  0.36250E+00 -0.72500E+00  0.00000E+00  0.00000E+00  0.00000E+00    0.10385E+03  0.13688E+03 -0.24073E+03 -0.75532E+01 -0.35686E+01  0.16327E+03      982.00
  0.61060E+00  0.45636E+03    0.37500E+00  0.37500E+00 -0.75000E+00  0.00000E+00  0.00000E+00  0.00000E+00    0.10493E+03  0.13509E+03 -0.24002E+03 -0.70818E+01 -0.33391E+01  0.16101E+03      982.00
  0.63033E+00  0.45271E+03    0.38750E+00  0.38750E+00 -0.77500E+00  0.00000E+00  0.00000E+00  0.00000E+00    0.10592E+03  0.13335E+03 -0.23927E+03 -0.66120E+01 -0.31176E+01  0.15855E+03      982.00
  0.65014E+00  0.44880E+03    0.40000E+00  0.40000E+00 -0.80000E+00  0.00000E+00  0.00000E+00  0.00000E+00    0.10688E+03  0.13158E+03 -0.23846E+03 -0.61629E+01 -0.29037E+01  0.15587E+03      982.00
  0.67007E+00  0.44463E+03    0.41250E+00  0.41250E+00 -0.82500E+00  0.00000E+00  0.00000E+00  0.00000E+00    0.10779E+03  0.12981E+03 -0.23760E+03 -0.57422E+01 -0.26957E+01  0.15296E+03      982.00
  0.69011E+00  0.44008E+03    0.42500E+00  0.42500E+00 -0.85000E+00  0.00000E+00  0.00000E+00  0.00000E+00    0.10865E+03  0.12798E+03 -0.23663E+03 -0.53766E+01 -0.24993E+01  0.14977E+03      982.00
  0.71027E+00  0.43533E+03    0.43750E+00  0.43750E+00 -0.87500E+00  0.00000E+00  0.00000E+00  0.00000E+00    0.10945E+03  0.12619E+03 -0.23564E+03 -0.50438E+01 -0.23068E+01  0.14637E+03      982.00
  0.73057E+00  0.43053E+03    0.45000E+00  0.45000E+00 -0.90000E+00  0.00000E+00  0.00000E+00  0.00000E+00    0.11013E+03  0.12455E+03 -0.23467E+03 -0.47438E+01 -0.21143E+01  0.14284E+03      982.00
  0.75101E+00  0.42560E+03    0.46250E+00  0.46250E+00 -0.92500E+00  0.00000E+00  0.00000E+00  0.00000E+00    0.11071E+03  0.12298E+03 -0.23369E+03 -0.44900E+01 -0.19298E+01  0.13914E+03      982.00
  0.77160E+00  0.42048E+03    0.47500E+00  0.47500E+00 -0.95000E+00  0.00000E+00  0.00000E+00  0.00000E+00    0.11123E+03  0.12142E+03 -0.23266E+03 -0.42992E+01 -0.17597E+01  0.13524E+03      982.00
  0.79235E+00  0.41544E+03    0.48750E+00  0.48750E+00 -0.97500E+00  0.00000E+00  0.00000E+00  0.00000E+00    0.11167E+03  0.12002E+03 -0.23168E+03 -0.41429E+01 -0.16008E+01  0.13128E+03      982.00
  0.81326E+00  0.41043E+03    0.50000E+00  0.50000E+00 -0.10000E+01  0.00000E+00  0.00000E+00  0.00000E+00    0.11203E+03  0.11871E+03 -0.23074E+03 -0.40328E+01 -0.14578E+01  0.12724E+03      982.00
