          Evm          Svm            E11          E22          E33          E23          E13          E12         SDEV11       SDEV22       SDEV33       SDEV23       SDEV13       SDEV12      TEMP
  0.00000E+00  0.16398E+03    0.00000E+00  0.00000E+00  0.00000E+00  0.00000E+00  0.00000E+00  0.00000E+00    0.50940E+02  0.51417E+02 -0.10236E+03 -0.38499E+01 -0.83487E+01  0.31949E+02      982.00
  0.23408E-01  0.16271E+03    0.12500E-01  0.12500E-01 -0.25000E-01  0.00000E+00  0.00000E+00  0.00000E+00    0.47767E+02  0.53511E+02 -0.10128E+03 -0.19778E+01 -0.79675E+01  0.32498E+02      982.00
  0.46750E-01  0.16360E+03    0.25000E-01  0.25000E-01 -0.50000E-01  0.00000E+00  0.00000E+00  0.00000E+00    0.46235E+02  0.55020E+02 -0.10125E+03 -0.15491E+01 -0.79495E+01  0.33873E+02      982.00
  0.69959E-01  0.16805E+03    0.37500E-01  0.37500E-01 -0.75000E-01  0.00000E+00  0.00000E+00  0.00000E+00    0.45938E+02  0.56987E+02 -0.10293E+03 -0.18020E+01 -0.80340E+01  0.37018E+02      982.00
  0.92926E-01  0.17709E+03    0.50000E-01  0.50000E-01 -0.10000E+00  0.00000E+00  0.00000E+00  0.00000E+00    0.46552E+02  0.60072E+02 -0.10662E+03 -0.23327E+01 -0.82527E+01  0.42513E+02      982.00
  0.11551E+00  0.19139E+03    0.62500E-01  0.62500E-01 -0.12500E+00  0.00000E+00  0.00000E+00  0.00000E+00    0.48123E+02  0.64440E+02 -0.11256E+03 -0.31221E+01 -0.86498E+01  0.50562E+02      982.00
  0.13756E+00  0.21277E+03    0.75000E-01  0.75000E-01 -0.15000E+00  0.00000E+00  0.00000E+00  0.00000E+00    0.50691E+02  0.70647E+02 -0.12134E+03 -0.41335E+01 -0.92790E+01  0.62014E+02      982.00
  0.15894E+00  0.24325E+03    0.87500E-01  0.87500E-01 -0.17500E+00  0.00000E+00  0.00000E+00  0.00000E+00    0.54407E+02  0.79191E+02 -0.13360E+03 -0.53987E+01 -0.10174E+02  0.77792E+02      982.00
  0.17954E+00  0.28368E+03    0.10000E+00  0.10000E+00 -0.20000E+00  0.00000E+00  0.00000E+00  0.00000E+00    0.59320E+02  0.90190E+02 -0.14951E+03 -0.69052E+01 -0.11300E+02  0.98218E+02      982.00
  0.19930E+00  0.33125E+03    0.11250E+00  0.11250E+00 -0.22500E+00  0.00000E+00  0.00000E+00  0.00000E+00    0.65083E+02  0.10278E+03 -0.16787E+03 -0.84829E+01 -0.12517E+02  0.12189E+03      982.00
  0.21831E+00  0.37812E+03    0.12500E+00  0.12500E+00 -0.25000E+00  0.00000E+00  0.00000E+00  0.00000E+00    0.70965E+02  0.11487E+03 -0.18583E+03 -0.99265E+01 -0.13528E+02  0.14489E+03      982.00
  0.23674E+00  0.41751E+03    0.13750E+00  0.13750E+00 -0.27500E+00  0.00000E+00  0.00000E+00  0.00000E+00    0.76141E+02  0.12473E+03 -0.20087E+03 -0.11019E+02 -0.14200E+02  0.16411E+03      982.00
  0.25478E+00  0.44827E+03    0.15000E+00  0.15000E+00 -0.30000E+00  0.00000E+00  0.00000E+00  0.00000E+00    0.80421E+02  0.13222E+03 -0.21264E+03 -0.11815E+02 -0.14550E+02  0.17901E+03      982.00
  0.27257E+00  0.47174E+03    0.16250E+00  0.16250E+00 -0.32500E+00  0.00000E+00  0.00000E+00  0.00000E+00    0.83803E+02  0.13784E+03 -0.22164E+03 -0.12376E+02 -0.14660E+02  0.19036E+03      982.00
  0.29019E+00  0.49007E+03    0.17500E+00  0.17500E+00 -0.35000E+00  0.00000E+00  0.00000E+00  0.00000E+00    0.86426E+02  0.14218E+03 -0.22861E+03 -0.12745E+02 -0.14636E+02  0.19926E+03      982.00
  0.30768E+00  0.50457E+03    0.18750E+00  0.18750E+00 -0.37500E+00  0.00000E+00  0.00000E+00  0.00000E+00    0.88444E+02  0.14560E+03 -0.23405E+03 -0.12987E+02 -0.14519E+02  0.20635E+03      982.00
  0.32507E+00  0.51617E+03    0.20000E+00  0.20000E+00 -0.40000E+00  0.00000E+00  0.00000E+00  0.00000E+00    0.89968E+02  0.14835E+03 -0.23832E+03 -0.13135E+02 -0.14337E+02  0.21209E+03      982.00
  0.34239E+00  0.52569E+03    0.21250E+00  0.21250E+00 -0.42500E+00  0.00000E+00  0.00000E+00  0.00000E+00    0.91090E+02  0.15064E+03 -0.24173E+03 -0.13209E+02 -0.14113E+02  0.21686E+03      982.00
  0.35963E+00  0.53320E+03    0.22500E+00  0.22500E+00 -0.45000E+00  0.00000E+00  0.00000E+00  0.00000E+00    0.91880E+02  0.15247E+03 -0.24435E+03 -0.13230E+02 -0.13853E+02  0.22069E+03      982.00
  0.37682E+00  0.53993E+03    0.23750E+00  0.23750E+00 -0.47500E+00  0.00000E+00  0.00000E+00  0.00000E+00    0.92446E+02  0.15414E+03 -0.24659E+03 -0.13194E+02 -0.13583E+02  0.22419E+03      982.00
  0.39394E+00  0.54562E+03    0.25000E+00  0.25000E+00 -0.50000E+00  0.00000E+00  0.00000E+00  0.00000E+00    0.92807E+02  0.15560E+03 -0.24840E+03 -0.13126E+02 -0.13288E+02  0.22720E+03      982.00
  0.41102E+00  0.55031E+03    0.26250E+00  0.26250E+00 -0.52500E+00  0.00000E+00  0.00000E+00  0.00000E+00    0.93018E+02  0.15680E+03 -0.24982E+03 -0.13029E+02 -0.12973E+02  0.22974E+03      982.00
  0.42804E+00  0.55076E+03    0.27500E+00  0.27500E+00 -0.55000E+00  0.00000E+00  0.00000E+00  0.00000E+00    0.92285E+02  0.15725E+03 -0.24954E+03 -0.12770E+02 -0.12618E+02  0.23029E+03      982.00
  0.44503E+00  0.55114E+03    0.28750E+00  0.28750E+00 -0.57500E+00  0.00000E+00  0.00000E+00  0.00000E+00    0.91828E+02  0.15741E+03 -0.24924E+03 -0.12500E+02 -0.12268E+02  0.23082E+03      982.00
  0.46199E+00  0.55178E+03    0.30000E+00  0.30000E+00 -0.60000E+00  0.00000E+00  0.00000E+00  0.00000E+00    0.91300E+02  0.15774E+03 -0.24904E+03 -0.12225E+02 -0.11927E+02  0.23146E+03      982.00
  0.47892E+00  0.55224E+03    0.31250E+00  0.31250E+00 -0.62500E+00  0.00000E+00  0.00000E+00  0.00000E+00    0.90859E+02  0.15794E+03 -0.24880E+03 -0.11950E+02 -0.11588E+02  0.23201E+03      982.00
  0.49581E+00  0.55266E+03    0.32500E+00  0.32500E+00 -0.65000E+00  0.00000E+00  0.00000E+00  0.00000E+00    0.90440E+02  0.15812E+03 -0.24856E+03 -0.11673E+02 -0.11256E+02  0.23252E+03      982.00
  0.51268E+00  0.55305E+03    0.33750E+00  0.33750E+00 -0.67500E+00  0.00000E+00  0.00000E+00  0.00000E+00    0.90036E+02  0.15828E+03 -0.24832E+03 -0.11394E+02 -0.10928E+02  0.23301E+03      982.00
  0.52951E+00  0.55341E+03    0.35000E+00  0.35000E+00 -0.70000E+00  0.00000E+00  0.00000E+00  0.00000E+00    0.89646E+02  0.15845E+03 -0.24809E+03 -0.11115E+02 -0.10607E+02  0.23347E+03      982.00
  0.54632E+00  0.55374E+03    0.36250E+00  0.36250E+00 -0.72500E+00  0.00000E+00  0.00000E+00  0.00000E+00    0.89268E+02  0.15860E+03 -0.24787E+03 -0.10835E+02 -0.10293E+02  0.23389E+03      982.00
  0.56311E+00  0.55413E+03    0.37500E+00  0.37500E+00 -0.75000E+00  0.00000E+00  0.00000E+00  0.00000E+00    0.88860E+02  0.15884E+03 -0.24770E+03 -0.10557E+02 -0.99933E+01  0.23431E+03      982.00
  0.57987E+00  0.55439E+03    0.38750E+00  0.38750E+00 -0.77500E+00  0.00000E+00  0.00000E+00  0.00000E+00    0.88502E+02  0.15898E+03 -0.24749E+03 -0.10278E+02 -0.96913E+01  0.23467E+03      982.00
  0.59661E+00  0.55465E+03    0.40000E+00  0.40000E+00 -0.80000E+00  0.00000E+00  0.00000E+00  0.00000E+00    0.88135E+02  0.15917E+03 -0.24730E+03 -0.99960E+01 -0.93975E+01  0.23501E+03      982.00
  0.61333E+00  0.55486E+03    0.41250E+00  0.41250E+00 -0.82500E+00  0.00000E+00  0.00000E+00  0.00000E+00    0.87780E+02  0.15933E+03 -0.24711E+03 -0.97221E+01 -0.91109E+01  0.23531E+03      982.00
  0.63003E+00  0.55505E+03    0.42500E+00  0.42500E+00 -0.85000E+00  0.00000E+00  0.00000E+00  0.00000E+00    0.87450E+02  0.15948E+03 -0.24693E+03 -0.94523E+01 -0.88332E+01  0.23558E+03      982.00
  0.64672E+00  0.55521E+03    0.43750E+00  0.43750E+00 -0.87500E+00  0.00000E+00  0.00000E+00  0.00000E+00    0.87134E+02  0.15962E+03 -0.24676E+03 -0.91865E+01 -0.85640E+01  0.23583E+03      982.00
  0.66338E+00  0.55536E+03    0.45000E+00  0.45000E+00 -0.90000E+00  0.00000E+00  0.00000E+00  0.00000E+00    0.86830E+02  0.15977E+03 -0.24660E+03 -0.89249E+01 -0.83031E+01  0.23606E+03      982.00
  0.68003E+00  0.55549E+03    0.46250E+00  0.46250E+00 -0.92500E+00  0.00000E+00  0.00000E+00  0.00000E+00    0.86535E+02  0.15991E+03 -0.24644E+03 -0.86678E+01 -0.80505E+01  0.23626E+03      982.00
  0.69667E+00  0.55560E+03    0.47500E+00  0.47500E+00 -0.95000E+00  0.00000E+00  0.00000E+00  0.00000E+00    0.86250E+02  0.16005E+03 -0.24630E+03 -0.84156E+01 -0.78060E+01  0.23644E+03      982.00
  0.71330E+00  0.55569E+03    0.48750E+00  0.48750E+00 -0.97500E+00  0.00000E+00  0.00000E+00  0.00000E+00    0.85973E+02  0.16019E+03 -0.24616E+03 -0.81683E+01 -0.75696E+01  0.23661E+03      982.00
  0.72991E+00  0.55578E+03    0.50000E+00  0.50000E+00 -0.10000E+01  0.00000E+00  0.00000E+00  0.00000E+00    0.85693E+02  0.16033E+03 -0.24603E+03 -0.79185E+01 -0.73350E+01  0.23676E+03      982.00
