          Evm          Svm            E11          E22          E33          E23          E13          E12         SDEV11       SDEV22       SDEV33       SDEV23       SDEV13       SDEV12      TEMP
  0.00000E+00  0.21692E+03    0.00000E+00  0.00000E+00  0.00000E+00  0.00000E+00  0.00000E+00  0.00000E+00    0.50459E+02  0.90411E+02 -0.14087E+03  0.14319E+02  0.33017E+01  0.13655E+02      982.00
  0.24353E-01  0.20951E+03    0.12500E-01  0.12500E-01 -0.25000E-01  0.00000E+00  0.00000E+00  0.00000E+00    0.47225E+02  0.88823E+02 -0.13605E+03  0.10997E+02  0.18788E+01  0.13877E+02      982.00
  0.48704E-01  0.20704E+03    0.25000E-01  0.25000E-01 -0.50000E-01  0.00000E+00  0.00000E+00  0.00000E+00    0.44602E+02  0.89516E+02 -0.13412E+03  0.89465E+01  0.10660E+01  0.14589E+02      982.00
  0.72996E-01  0.20960E+03    0.37500E-01  0.37500E-01 -0.75000E-01  0.00000E+00  0.00000E+00  0.00000E+00    0.42595E+02  0.92586E+02 -0.13518E+03  0.79770E+01  0.82966E+00  0.15789E+02      982.00
  0.97181E-01  0.21844E+03    0.50000E-01  0.50000E-01 -0.10000E+00  0.00000E+00  0.00000E+00  0.00000E+00    0.41150E+02  0.98841E+02 -0.13999E+03  0.79304E+01  0.10225E+01  0.17660E+02      982.00
  0.12121E+00  0.23427E+03    0.62500E-01  0.62500E-01 -0.12500E+00  0.00000E+00  0.00000E+00  0.00000E+00    0.40109E+02  0.10879E+03 -0.14890E+03  0.85021E+01  0.14521E+01  0.20304E+02      982.00
  0.14505E+00  0.25502E+03    0.75000E-01  0.75000E-01 -0.15000E+00  0.00000E+00  0.00000E+00  0.00000E+00    0.39392E+02  0.12130E+03 -0.16070E+03  0.93135E+01  0.19589E+01  0.23306E+02      982.00
  0.16868E+00  0.27660E+03    0.87500E-01  0.87500E-01 -0.17500E+00  0.00000E+00  0.00000E+00  0.00000E+00    0.39086E+02  0.13400E+03 -0.17309E+03  0.10073E+02  0.24424E+01  0.25938E+02      982.00
  0.19214E+00  0.29585E+03    0.10000E+00  0.10000E+00 -0.20000E+00  0.00000E+00  0.00000E+00  0.00000E+00    0.39306E+02  0.14504E+03 -0.18434E+03  0.10683E+02  0.28695E+01  0.27779E+02      982.00
  0.21551E+00  0.31156E+03    0.11250E+00  0.11250E+00 -0.22500E+00  0.00000E+00  0.00000E+00  0.00000E+00    0.40133E+02  0.15367E+03 -0.19380E+03  0.11184E+02  0.32478E+01  0.28816E+02      982.00
  0.23884E+00  0.32392E+03    0.12500E+00  0.12500E+00 -0.25000E+00  0.00000E+00  0.00000E+00  0.00000E+00    0.41509E+02  0.16003E+03 -0.20154E+03  0.11634E+02  0.35950E+01  0.29184E+02      982.00
  0.26217E+00  0.33339E+03    0.13750E+00  0.13750E+00 -0.27500E+00  0.00000E+00  0.00000E+00  0.00000E+00    0.43370E+02  0.16442E+03 -0.20779E+03  0.12073E+02  0.39232E+01  0.29004E+02      982.00
  0.28554E+00  0.34068E+03    0.15000E+00  0.15000E+00 -0.30000E+00  0.00000E+00  0.00000E+00  0.00000E+00    0.45642E+02  0.16728E+03 -0.21292E+03  0.12533E+02  0.42418E+01  0.28479E+02      982.00
  0.30898E+00  0.34642E+03    0.16250E+00  0.16250E+00 -0.32500E+00  0.00000E+00  0.00000E+00  0.00000E+00    0.48225E+02  0.16902E+03 -0.21725E+03  0.13029E+02  0.45595E+01  0.27667E+02      982.00
  0.33250E+00  0.35124E+03    0.17500E+00  0.17500E+00 -0.35000E+00  0.00000E+00  0.00000E+00  0.00000E+00    0.51074E+02  0.17003E+03 -0.22111E+03  0.13569E+02  0.48821E+01  0.26667E+02      982.00
  0.35610E+00  0.35529E+03    0.18750E+00  0.18750E+00 -0.37500E+00  0.00000E+00  0.00000E+00  0.00000E+00    0.54139E+02  0.17042E+03 -0.22456E+03  0.14167E+02  0.52173E+01  0.25455E+02      982.00
  0.37980E+00  0.35903E+03    0.20000E+00  0.20000E+00 -0.40000E+00  0.00000E+00  0.00000E+00  0.00000E+00    0.57405E+02  0.17045E+03 -0.22785E+03  0.14864E+02  0.55814E+01  0.24130E+02      982.00
  0.40360E+00  0.36262E+03    0.21250E+00  0.21250E+00 -0.42500E+00  0.00000E+00  0.00000E+00  0.00000E+00    0.60841E+02  0.17023E+03 -0.23107E+03  0.15588E+02  0.59505E+01  0.22708E+02      982.00
  0.42750E+00  0.36616E+03    0.22500E+00  0.22500E+00 -0.45000E+00  0.00000E+00  0.00000E+00  0.00000E+00    0.64468E+02  0.16979E+03 -0.23425E+03  0.16485E+02  0.63648E+01  0.21192E+02      982.00
  0.45149E+00  0.36981E+03    0.23750E+00  0.23750E+00 -0.47500E+00  0.00000E+00  0.00000E+00  0.00000E+00    0.68251E+02  0.16924E+03 -0.23749E+03  0.17431E+02  0.67830E+01  0.19639E+02      982.00
  0.47557E+00  0.37371E+03    0.25000E+00  0.25000E+00 -0.50000E+00  0.00000E+00  0.00000E+00  0.00000E+00    0.72276E+02  0.16858E+03 -0.24086E+03  0.18686E+02  0.72732E+01  0.17997E+02      982.00
  0.49974E+00  0.37795E+03    0.26250E+00  0.26250E+00 -0.52500E+00  0.00000E+00  0.00000E+00  0.00000E+00    0.76556E+02  0.16784E+03 -0.24439E+03  0.20296E+02  0.78203E+01  0.16283E+02      982.00
  0.52399E+00  0.38048E+03    0.27500E+00  0.27500E+00 -0.55000E+00  0.00000E+00  0.00000E+00  0.00000E+00    0.80361E+02  0.16640E+03 -0.24676E+03  0.21261E+02  0.80680E+01  0.14800E+02      982.00
  0.54831E+00  0.38332E+03    0.28750E+00  0.28750E+00 -0.57500E+00  0.00000E+00  0.00000E+00  0.00000E+00    0.84142E+02  0.16512E+03 -0.24926E+03  0.22254E+02  0.82960E+01  0.13364E+02      982.00
  0.57269E+00  0.38639E+03    0.30000E+00  0.30000E+00 -0.60000E+00  0.00000E+00  0.00000E+00  0.00000E+00    0.87859E+02  0.16397E+03 -0.25183E+03  0.23193E+02  0.84800E+01  0.12029E+02      982.00
  0.59714E+00  0.38956E+03    0.31250E+00  0.31250E+00 -0.62500E+00  0.00000E+00  0.00000E+00  0.00000E+00    0.91469E+02  0.16293E+03 -0.25440E+03  0.24064E+02  0.86065E+01  0.10804E+02      982.00
  0.62162E+00  0.39276E+03    0.32500E+00  0.32500E+00 -0.65000E+00  0.00000E+00  0.00000E+00  0.00000E+00    0.94955E+02  0.16199E+03 -0.25694E+03  0.24777E+02  0.86552E+01  0.97154E+01      982.00
  0.64616E+00  0.39603E+03    0.33750E+00  0.33750E+00 -0.67500E+00  0.00000E+00  0.00000E+00  0.00000E+00    0.98290E+02  0.16121E+03 -0.25950E+03  0.25209E+02  0.86736E+01  0.87480E+01      982.00
  0.67073E+00  0.39947E+03    0.35000E+00  0.35000E+00 -0.70000E+00  0.00000E+00  0.00000E+00  0.00000E+00    0.10149E+03  0.16064E+03 -0.26213E+03  0.25458E+02  0.87140E+01  0.78257E+01      982.00
  0.69533E+00  0.40302E+03    0.36250E+00  0.36250E+00 -0.72500E+00  0.00000E+00  0.00000E+00  0.00000E+00    0.10462E+03  0.16016E+03 -0.26478E+03  0.25798E+02  0.87310E+01  0.69937E+01      982.00
  0.71997E+00  0.40635E+03    0.37500E+00  0.37500E+00 -0.75000E+00  0.00000E+00  0.00000E+00  0.00000E+00    0.10755E+03  0.15971E+03 -0.26726E+03  0.25963E+02  0.86774E+01  0.62664E+01      982.00
  0.74464E+00  0.40978E+03    0.38750E+00  0.38750E+00 -0.77500E+00  0.00000E+00  0.00000E+00  0.00000E+00    0.11040E+03  0.15938E+03 -0.26978E+03  0.26150E+02  0.86500E+01  0.55797E+01      982.00
  0.76932E+00  0.41317E+03    0.40000E+00  0.40000E+00 -0.80000E+00  0.00000E+00  0.00000E+00  0.00000E+00    0.11312E+03  0.15913E+03 -0.27224E+03  0.26238E+02  0.86174E+01  0.49533E+01      982.00
  0.79403E+00  0.41651E+03    0.41250E+00  0.41250E+00 -0.82500E+00  0.00000E+00  0.00000E+00  0.00000E+00    0.11571E+03  0.15894E+03 -0.27465E+03  0.26266E+02  0.85824E+01  0.43810E+01      982.00
  0.81876E+00  0.41974E+03    0.42500E+00  0.42500E+00 -0.85000E+00  0.00000E+00  0.00000E+00  0.00000E+00    0.11816E+03  0.15882E+03 -0.27698E+03  0.26214E+02  0.85411E+01  0.38566E+01      982.00
  0.84351E+00  0.42300E+03    0.43750E+00  0.43750E+00 -0.87500E+00  0.00000E+00  0.00000E+00  0.00000E+00    0.12054E+03  0.15877E+03 -0.27931E+03  0.26185E+02  0.85178E+01  0.33666E+01      982.00
  0.86827E+00  0.42658E+03    0.45000E+00  0.45000E+00 -0.90000E+00  0.00000E+00  0.00000E+00  0.00000E+00    0.12306E+03  0.15877E+03 -0.28183E+03  0.26211E+02  0.85526E+01  0.30254E+01      982.00
  0.89304E+00  0.42917E+03    0.46250E+00  0.46250E+00 -0.92500E+00  0.00000E+00  0.00000E+00  0.00000E+00    0.12498E+03  0.15871E+03 -0.28369E+03  0.25952E+02  0.84874E+01  0.25780E+01      982.00
  0.91783E+00  0.43213E+03    0.47500E+00  0.47500E+00 -0.95000E+00  0.00000E+00  0.00000E+00  0.00000E+00    0.12699E+03  0.15878E+03 -0.28578E+03  0.25788E+02  0.84799E+01  0.21936E+01      982.00
  0.94263E+00  0.43491E+03    0.48750E+00  0.48750E+00 -0.97500E+00  0.00000E+00  0.00000E+00  0.00000E+00    0.12885E+03  0.15889E+03 -0.28774E+03  0.25552E+02  0.84675E+01  0.18320E+01      982.00
  0.96744E+00  0.43767E+03    0.50000E+00  0.50000E+00 -0.10000E+01  0.00000E+00  0.00000E+00  0.00000E+00    0.13064E+03  0.15904E+03 -0.28968E+03  0.25323E+02  0.84664E+01  0.14985E+01      982.00
