          Evm          Svm            E11          E22          E33          E23          E13          E12         SDEV11       SDEV22       SDEV33       SDEV23       SDEV13       SDEV12      TEMP
  0.00000E+00  0.15657E+03    0.00000E+00  0.00000E+00  0.00000E+00  0.00000E+00  0.00000E+00  0.00000E+00    0.49453E+02  0.48036E+02 -0.97489E+02 -0.21245E+01 -0.84257E+00  0.32206E+02      982.00
  0.23350E-01  0.15723E+03    0.12500E-01  0.12500E-01 -0.25000E-01  0.00000E+00  0.00000E+00  0.00000E+00    0.50115E+02  0.47271E+02 -0.97386E+02 -0.25229E+01 -0.69722E+00  0.33439E+02      982.00
  0.46577E-01  0.16029E+03    0.25000E-01  0.25000E-01 -0.50000E-01  0.00000E+00  0.00000E+00  0.00000E+00    0.51118E+02  0.47228E+02 -0.98347E+02 -0.27954E+01 -0.66198E+00  0.36038E+02      982.00
  0.69585E-01  0.16619E+03    0.37500E-01  0.37500E-01 -0.75000E-01  0.00000E+00  0.00000E+00  0.00000E+00    0.52664E+02  0.47862E+02 -0.10053E+03 -0.29943E+01 -0.72091E+00  0.40152E+02      982.00
  0.92268E-01  0.17580E+03    0.50000E-01  0.50000E-01 -0.10000E+00  0.00000E+00  0.00000E+00  0.00000E+00    0.54998E+02  0.49241E+02 -0.10424E+03 -0.31763E+01 -0.87557E+00  0.46189E+02      982.00
  0.11450E+00  0.19033E+03    0.62500E-01  0.62500E-01 -0.12500E+00  0.00000E+00  0.00000E+00  0.00000E+00    0.58397E+02  0.51492E+02 -0.10989E+03 -0.33830E+01 -0.11253E+01  0.54718E+02      982.00
  0.13615E+00  0.21143E+03    0.75000E-01  0.75000E-01 -0.15000E+00  0.00000E+00  0.00000E+00  0.00000E+00    0.63195E+02  0.54807E+02 -0.11800E+03 -0.36517E+01 -0.14684E+01  0.66517E+02      982.00
  0.15708E+00  0.24110E+03    0.87500E-01  0.87500E-01 -0.17500E+00  0.00000E+00  0.00000E+00  0.00000E+00    0.69767E+02  0.59419E+02 -0.12919E+03 -0.40206E+01 -0.18968E+01  0.82541E+02      982.00
  0.17718E+00  0.28038E+03    0.10000E+00  0.10000E+00 -0.20000E+00  0.00000E+00  0.00000E+00  0.00000E+00    0.78256E+02  0.65428E+02 -0.14368E+03 -0.44877E+01 -0.24042E+01  0.10322E+03      982.00
  0.19639E+00  0.32699E+03    0.11250E+00  0.11250E+00 -0.22500E+00  0.00000E+00  0.00000E+00  0.00000E+00    0.88100E+02  0.72490E+02 -0.16059E+03 -0.50006E+01 -0.29433E+01  0.12730E+03      982.00
  0.21481E+00  0.37391E+03    0.12500E+00  0.12500E+00 -0.25000E+00  0.00000E+00  0.00000E+00  0.00000E+00    0.97780E+02  0.79642E+02 -0.17742E+03 -0.54525E+01 -0.34258E+01  0.15123E+03      982.00
  0.23260E+00  0.41417E+03    0.13750E+00  0.13750E+00 -0.27500E+00  0.00000E+00  0.00000E+00  0.00000E+00    0.10587E+03  0.85955E+02 -0.19182E+03 -0.57614E+01 -0.37915E+01  0.17157E+03      982.00
  0.24997E+00  0.44593E+03    0.15000E+00  0.15000E+00 -0.30000E+00  0.00000E+00  0.00000E+00  0.00000E+00    0.11205E+03  0.91150E+02 -0.20320E+03 -0.59385E+01 -0.40282E+01  0.18750E+03      982.00
  0.26706E+00  0.47081E+03    0.16250E+00  0.16250E+00 -0.32500E+00  0.00000E+00  0.00000E+00  0.00000E+00    0.11664E+03  0.95465E+02 -0.21210E+03 -0.60578E+01 -0.41317E+01  0.19996E+03      982.00
  0.28395E+00  0.48892E+03    0.17500E+00  0.17500E+00 -0.35000E+00  0.00000E+00  0.00000E+00  0.00000E+00    0.11999E+03  0.98695E+02 -0.21869E+03 -0.60401E+01 -0.42033E+01  0.20891E+03      982.00
  0.30073E+00  0.50349E+03    0.18750E+00  0.18750E+00 -0.37500E+00  0.00000E+00  0.00000E+00  0.00000E+00    0.12252E+03  0.10146E+03 -0.22398E+03 -0.60258E+01 -0.41829E+01  0.21613E+03      982.00
  0.31741E+00  0.51494E+03    0.20000E+00  0.20000E+00 -0.40000E+00  0.00000E+00  0.00000E+00  0.00000E+00    0.12446E+03  0.10370E+03 -0.22816E+03 -0.59891E+01 -0.41079E+01  0.22178E+03      982.00
  0.33403E+00  0.52419E+03    0.21250E+00  0.21250E+00 -0.42500E+00  0.00000E+00  0.00000E+00  0.00000E+00    0.12599E+03  0.10557E+03 -0.23156E+03 -0.59376E+01 -0.39973E+01  0.22632E+03      982.00
  0.35059E+00  0.53173E+03    0.22500E+00  0.22500E+00 -0.45000E+00  0.00000E+00  0.00000E+00  0.00000E+00    0.12723E+03  0.10712E+03 -0.23436E+03 -0.58738E+01 -0.38631E+01  0.23001E+03      982.00
  0.36712E+00  0.53799E+03    0.23750E+00  0.23750E+00 -0.47500E+00  0.00000E+00  0.00000E+00  0.00000E+00    0.12829E+03  0.10841E+03 -0.23670E+03 -0.57954E+01 -0.37159E+01  0.23304E+03      982.00
  0.38362E+00  0.54323E+03    0.25000E+00  0.25000E+00 -0.50000E+00  0.00000E+00  0.00000E+00  0.00000E+00    0.12918E+03  0.10952E+03 -0.23870E+03 -0.57052E+01 -0.35679E+01  0.23557E+03      982.00
  0.40010E+00  0.54807E+03    0.26250E+00  0.26250E+00 -0.52500E+00  0.00000E+00  0.00000E+00  0.00000E+00    0.13000E+03  0.11053E+03 -0.24053E+03 -0.56188E+01 -0.34106E+01  0.23791E+03      982.00
  0.41655E+00  0.55141E+03    0.27500E+00  0.27500E+00 -0.55000E+00  0.00000E+00  0.00000E+00  0.00000E+00    0.13066E+03  0.11119E+03 -0.24185E+03 -0.54900E+01 -0.32724E+01  0.23947E+03      982.00
  0.43300E+00  0.55153E+03    0.28750E+00  0.28750E+00 -0.57500E+00  0.00000E+00  0.00000E+00  0.00000E+00    0.13104E+03  0.11088E+03 -0.24192E+03 -0.53355E+01 -0.30155E+01  0.23950E+03      982.00
  0.44945E+00  0.55154E+03    0.30000E+00  0.30000E+00 -0.60000E+00  0.00000E+00  0.00000E+00  0.00000E+00    0.13119E+03  0.11079E+03 -0.24197E+03 -0.52167E+01 -0.28456E+01  0.23947E+03      982.00
  0.46590E+00  0.55158E+03    0.31250E+00  0.31250E+00 -0.62500E+00  0.00000E+00  0.00000E+00  0.00000E+00    0.13125E+03  0.11079E+03 -0.24203E+03 -0.51346E+01 -0.27424E+01  0.23946E+03      982.00
  0.48236E+00  0.55161E+03    0.32500E+00  0.32500E+00 -0.65000E+00  0.00000E+00  0.00000E+00  0.00000E+00    0.13138E+03  0.11072E+03 -0.24209E+03 -0.49984E+01 -0.26076E+01  0.23944E+03      982.00
  0.49881E+00  0.55162E+03    0.33750E+00  0.33750E+00 -0.67500E+00  0.00000E+00  0.00000E+00  0.00000E+00    0.13151E+03  0.11064E+03 -0.24215E+03 -0.48566E+01 -0.24880E+01  0.23941E+03      982.00
  0.51528E+00  0.55163E+03    0.35000E+00  0.35000E+00 -0.70000E+00  0.00000E+00  0.00000E+00  0.00000E+00    0.13163E+03  0.11057E+03 -0.24219E+03 -0.47118E+01 -0.23812E+01  0.23938E+03      982.00
  0.53174E+00  0.55164E+03    0.36250E+00  0.36250E+00 -0.72500E+00  0.00000E+00  0.00000E+00  0.00000E+00    0.13174E+03  0.11050E+03 -0.24224E+03 -0.45656E+01 -0.22850E+01  0.23934E+03      982.00
  0.54821E+00  0.55163E+03    0.37500E+00  0.37500E+00 -0.75000E+00  0.00000E+00  0.00000E+00  0.00000E+00    0.13185E+03  0.11043E+03 -0.24228E+03 -0.44191E+01 -0.21976E+01  0.23931E+03      982.00
  0.56468E+00  0.55163E+03    0.38750E+00  0.38750E+00 -0.77500E+00  0.00000E+00  0.00000E+00  0.00000E+00    0.13195E+03  0.11036E+03 -0.24231E+03 -0.42737E+01 -0.21174E+01  0.23928E+03      982.00
  0.58115E+00  0.55162E+03    0.40000E+00  0.40000E+00 -0.80000E+00  0.00000E+00  0.00000E+00  0.00000E+00    0.13204E+03  0.11030E+03 -0.24234E+03 -0.41302E+01 -0.20430E+01  0.23925E+03      982.00
  0.59762E+00  0.55161E+03    0.41250E+00  0.41250E+00 -0.82500E+00  0.00000E+00  0.00000E+00  0.00000E+00    0.13213E+03  0.11024E+03 -0.24237E+03 -0.39893E+01 -0.19733E+01  0.23922E+03      982.00
  0.61410E+00  0.55159E+03    0.42500E+00  0.42500E+00 -0.85000E+00  0.00000E+00  0.00000E+00  0.00000E+00    0.13221E+03  0.11018E+03 -0.24239E+03 -0.38516E+01 -0.19075E+01  0.23919E+03      982.00
  0.63058E+00  0.55158E+03    0.43750E+00  0.43750E+00 -0.87500E+00  0.00000E+00  0.00000E+00  0.00000E+00    0.13229E+03  0.11012E+03 -0.24241E+03 -0.37176E+01 -0.18447E+01  0.23917E+03      982.00
  0.64706E+00  0.55156E+03    0.45000E+00  0.45000E+00 -0.90000E+00  0.00000E+00  0.00000E+00  0.00000E+00    0.13236E+03  0.11006E+03 -0.24242E+03 -0.35876E+01 -0.17845E+01  0.23914E+03      982.00
  0.66354E+00  0.55153E+03    0.46250E+00  0.46250E+00 -0.92500E+00  0.00000E+00  0.00000E+00  0.00000E+00    0.13243E+03  0.11000E+03 -0.24243E+03 -0.34618E+01 -0.17262E+01  0.23911E+03      982.00
  0.68003E+00  0.55146E+03    0.47500E+00  0.47500E+00 -0.95000E+00  0.00000E+00  0.00000E+00  0.00000E+00    0.13255E+03  0.10987E+03 -0.24243E+03 -0.33420E+01 -0.16570E+01  0.23906E+03      982.00
  0.69651E+00  0.55149E+03    0.48750E+00  0.48750E+00 -0.97500E+00  0.00000E+00  0.00000E+00  0.00000E+00    0.13254E+03  0.10991E+03 -0.24245E+03 -0.32482E+01 -0.16171E+01  0.23907E+03      982.00
  0.71300E+00  0.55141E+03    0.50000E+00  0.50000E+00 -0.10000E+01  0.00000E+00  0.00000E+00  0.00000E+00    0.13268E+03  0.10976E+03 -0.24244E+03 -0.31061E+01 -0.15469E+01  0.23901E+03      982.00
