          Evm          Svm            E11          E22          E33          E23          E13          E12         SDEV11       SDEV22       SDEV33       SDEV23       SDEV13       SDEV12      TEMP
  0.00000E+00  0.16439E+03    0.00000E+00  0.00000E+00  0.00000E+00  0.00000E+00  0.00000E+00  0.00000E+00    0.46788E+02  0.54954E+02 -0.10174E+03 -0.83691E+01 -0.89592E+01  0.32821E+02      982.00
  0.23209E-01  0.16558E+03    0.12500E-01  0.12500E-01 -0.25000E-01  0.00000E+00  0.00000E+00  0.00000E+00    0.48023E+02  0.53959E+02 -0.10198E+03 -0.65251E+01 -0.72208E+01  0.35147E+02      982.00
  0.46306E-01  0.16461E+03    0.25000E-01  0.25000E-01 -0.50000E-01  0.00000E+00  0.00000E+00  0.00000E+00    0.49272E+02  0.51826E+02 -0.10110E+03 -0.52259E+01 -0.56671E+01  0.36139E+02      982.00
  0.69336E-01  0.17038E+03    0.37500E-01  0.37500E-01 -0.75000E-01  0.00000E+00  0.00000E+00  0.00000E+00    0.51546E+02  0.51689E+02 -0.10323E+03 -0.46980E+01 -0.49768E+01  0.40452E+02      982.00
  0.92058E-01  0.18421E+03    0.50000E-01  0.50000E-01 -0.10000E+00  0.00000E+00  0.00000E+00  0.00000E+00    0.55217E+02  0.53627E+02 -0.10884E+03 -0.46685E+01 -0.49117E+01  0.48778E+02      982.00
  0.11422E+00  0.20742E+03    0.62500E-01  0.62500E-01 -0.12500E+00  0.00000E+00  0.00000E+00  0.00000E+00    0.60624E+02  0.57571E+02 -0.11820E+03 -0.50041E+01 -0.53145E+01  0.61702E+02      982.00
  0.13558E+00  0.24221E+03    0.75000E-01  0.75000E-01 -0.15000E+00  0.00000E+00  0.00000E+00  0.00000E+00    0.68180E+02  0.63668E+02 -0.13185E+03 -0.56580E+01 -0.61029E+01  0.80267E+02      982.00
  0.15600E+00  0.28891E+03    0.87500E-01  0.87500E-01 -0.17500E+00  0.00000E+00  0.00000E+00  0.00000E+00    0.77845E+02  0.71823E+02 -0.14967E+03 -0.65531E+01 -0.71901E+01  0.10450E+03      982.00
  0.17542E+00  0.34171E+03    0.10000E+00  0.10000E+00 -0.20000E+00  0.00000E+00  0.00000E+00  0.00000E+00    0.88365E+02  0.81028E+02 -0.16939E+03 -0.74715E+01 -0.83679E+01  0.13139E+03      982.00
  0.19401E+00  0.38994E+03    0.11250E+00  0.11250E+00 -0.22500E+00  0.00000E+00  0.00000E+00  0.00000E+00    0.97646E+02  0.89584E+02 -0.18723E+03 -0.81705E+01 -0.93904E+01  0.15563E+03      982.00
  0.21202E+00  0.42849E+03    0.12500E+00  0.12500E+00 -0.25000E+00  0.00000E+00  0.00000E+00  0.00000E+00    0.10479E+03  0.96666E+02 -0.20146E+03 -0.86060E+01 -0.10172E+02  0.17484E+03      982.00
  0.22965E+00  0.45806E+03    0.13750E+00  0.13750E+00 -0.27500E+00  0.00000E+00  0.00000E+00  0.00000E+00    0.11005E+03  0.10231E+03 -0.21237E+03 -0.88424E+01 -0.10737E+02  0.18949E+03      982.00
  0.24704E+00  0.48018E+03    0.15000E+00  0.15000E+00 -0.30000E+00  0.00000E+00  0.00000E+00  0.00000E+00    0.11385E+03  0.10668E+03 -0.22053E+03 -0.89572E+01 -0.11137E+02  0.20042E+03      982.00
  0.26426E+00  0.49729E+03    0.16250E+00  0.16250E+00 -0.32500E+00  0.00000E+00  0.00000E+00  0.00000E+00    0.11670E+03  0.11011E+03 -0.22681E+03 -0.89957E+01 -0.11413E+02  0.20887E+03      982.00
  0.28136E+00  0.51083E+03    0.17500E+00  0.17500E+00 -0.35000E+00  0.00000E+00  0.00000E+00  0.00000E+00    0.11889E+03  0.11286E+03 -0.23175E+03 -0.89729E+01 -0.11585E+02  0.21559E+03      982.00
  0.29837E+00  0.52147E+03    0.18750E+00  0.18750E+00 -0.37500E+00  0.00000E+00  0.00000E+00  0.00000E+00    0.12059E+03  0.11498E+03 -0.23557E+03 -0.89149E+01 -0.11674E+02  0.22090E+03      982.00
  0.31532E+00  0.53036E+03    0.20000E+00  0.20000E+00 -0.40000E+00  0.00000E+00  0.00000E+00  0.00000E+00    0.12198E+03  0.11674E+03 -0.23873E+03 -0.88236E+01 -0.11701E+02  0.22538E+03      982.00
  0.33219E+00  0.53774E+03    0.21250E+00  0.21250E+00 -0.42500E+00  0.00000E+00  0.00000E+00  0.00000E+00    0.12309E+03  0.11820E+03 -0.24128E+03 -0.87053E+01 -0.11674E+02  0.22915E+03      982.00
  0.34902E+00  0.54385E+03    0.22500E+00  0.22500E+00 -0.45000E+00  0.00000E+00  0.00000E+00  0.00000E+00    0.12397E+03  0.11938E+03 -0.24336E+03 -0.85635E+01 -0.11598E+02  0.23230E+03      982.00
  0.36580E+00  0.54904E+03    0.23750E+00  0.23750E+00 -0.47500E+00  0.00000E+00  0.00000E+00  0.00000E+00    0.12470E+03  0.12037E+03 -0.24507E+03 -0.84040E+01 -0.11484E+02  0.23501E+03      982.00
  0.38254E+00  0.55364E+03    0.25000E+00  0.25000E+00 -0.50000E+00  0.00000E+00  0.00000E+00  0.00000E+00    0.12536E+03  0.12120E+03 -0.24656E+03 -0.82326E+01 -0.11342E+02  0.23744E+03      982.00
  0.39924E+00  0.55807E+03    0.26250E+00  0.26250E+00 -0.52500E+00  0.00000E+00  0.00000E+00  0.00000E+00    0.12590E+03  0.12204E+03 -0.24794E+03 -0.80383E+01 -0.11188E+02  0.23982E+03      982.00
  0.41590E+00  0.56144E+03    0.27500E+00  0.27500E+00 -0.55000E+00  0.00000E+00  0.00000E+00  0.00000E+00    0.12636E+03  0.12263E+03 -0.24899E+03 -0.78546E+01 -0.11009E+02  0.24164E+03      982.00
  0.43253E+00  0.56425E+03    0.28750E+00  0.28750E+00 -0.57500E+00  0.00000E+00  0.00000E+00  0.00000E+00    0.12677E+03  0.12304E+03 -0.24981E+03 -0.76704E+01 -0.10804E+02  0.24319E+03      982.00
  0.44913E+00  0.56497E+03    0.30000E+00  0.30000E+00 -0.60000E+00  0.00000E+00  0.00000E+00  0.00000E+00    0.12697E+03  0.12285E+03 -0.24981E+03 -0.73525E+01 -0.10403E+02  0.24377E+03      982.00
  0.46572E+00  0.56539E+03    0.31250E+00  0.31250E+00 -0.62500E+00  0.00000E+00  0.00000E+00  0.00000E+00    0.12701E+03  0.12272E+03 -0.24973E+03 -0.71479E+01 -0.10139E+02  0.24418E+03      982.00
  0.48228E+00  0.56570E+03    0.32500E+00  0.32500E+00 -0.65000E+00  0.00000E+00  0.00000E+00  0.00000E+00    0.12706E+03  0.12257E+03 -0.24963E+03 -0.69591E+01 -0.98905E+01  0.24451E+03      982.00
  0.49883E+00  0.56596E+03    0.33750E+00  0.33750E+00 -0.67500E+00  0.00000E+00  0.00000E+00  0.00000E+00    0.12710E+03  0.12243E+03 -0.24952E+03 -0.67628E+01 -0.96342E+01  0.24481E+03      982.00
  0.51536E+00  0.56620E+03    0.35000E+00  0.35000E+00 -0.70000E+00  0.00000E+00  0.00000E+00  0.00000E+00    0.12714E+03  0.12229E+03 -0.24943E+03 -0.65715E+01 -0.93843E+01  0.24508E+03      982.00
  0.53188E+00  0.56638E+03    0.36250E+00  0.36250E+00 -0.72500E+00  0.00000E+00  0.00000E+00  0.00000E+00    0.12718E+03  0.12217E+03 -0.24936E+03 -0.64042E+01 -0.91692E+01  0.24528E+03      982.00
  0.54839E+00  0.56657E+03    0.37500E+00  0.37500E+00 -0.75000E+00  0.00000E+00  0.00000E+00  0.00000E+00    0.12722E+03  0.12205E+03 -0.24927E+03 -0.62233E+01 -0.89327E+01  0.24551E+03      982.00
  0.56489E+00  0.56675E+03    0.38750E+00  0.38750E+00 -0.77500E+00  0.00000E+00  0.00000E+00  0.00000E+00    0.12727E+03  0.12192E+03 -0.24919E+03 -0.60466E+01 -0.87023E+01  0.24572E+03      982.00
  0.58138E+00  0.56691E+03    0.40000E+00  0.40000E+00 -0.80000E+00  0.00000E+00  0.00000E+00  0.00000E+00    0.12733E+03  0.12179E+03 -0.24912E+03 -0.58748E+01 -0.84783E+01  0.24590E+03      982.00
  0.59786E+00  0.56705E+03    0.41250E+00  0.41250E+00 -0.82500E+00  0.00000E+00  0.00000E+00  0.00000E+00    0.12738E+03  0.12167E+03 -0.24905E+03 -0.57074E+01 -0.82606E+01  0.24608E+03      982.00
  0.61433E+00  0.56719E+03    0.42500E+00  0.42500E+00 -0.85000E+00  0.00000E+00  0.00000E+00  0.00000E+00    0.12744E+03  0.12155E+03 -0.24899E+03 -0.55445E+01 -0.80490E+01  0.24623E+03      982.00
  0.63079E+00  0.56731E+03    0.43750E+00  0.43750E+00 -0.87500E+00  0.00000E+00  0.00000E+00  0.00000E+00    0.12751E+03  0.12143E+03 -0.24894E+03 -0.53858E+01 -0.78434E+01  0.24638E+03      982.00
  0.64724E+00  0.56741E+03    0.45000E+00  0.45000E+00 -0.90000E+00  0.00000E+00  0.00000E+00  0.00000E+00    0.12757E+03  0.12131E+03 -0.24889E+03 -0.52312E+01 -0.76435E+01  0.24651E+03      982.00
  0.66369E+00  0.56751E+03    0.46250E+00  0.46250E+00 -0.92500E+00  0.00000E+00  0.00000E+00  0.00000E+00    0.12764E+03  0.12120E+03 -0.24884E+03 -0.50806E+01 -0.74493E+01  0.24662E+03      982.00
  0.68014E+00  0.56760E+03    0.47500E+00  0.47500E+00 -0.95000E+00  0.00000E+00  0.00000E+00  0.00000E+00    0.12771E+03  0.12109E+03 -0.24880E+03 -0.49339E+01 -0.72606E+01  0.24673E+03      982.00
  0.69657E+00  0.56769E+03    0.48750E+00  0.48750E+00 -0.97500E+00  0.00000E+00  0.00000E+00  0.00000E+00    0.12779E+03  0.12098E+03 -0.24877E+03 -0.47908E+01 -0.70772E+01  0.24683E+03      982.00
  0.71301E+00  0.56776E+03    0.50000E+00  0.50000E+00 -0.10000E+01  0.00000E+00  0.00000E+00  0.00000E+00    0.12786E+03  0.12087E+03 -0.24873E+03 -0.46515E+01 -0.68991E+01  0.24692E+03      982.00
