          Evm          Svm            E11          E22          E33          E23          E13          E12         SDEV11       SDEV22       SDEV33       SDEV23       SDEV13       SDEV12      TEMP
  0.00000E+00  0.16980E+03    0.00000E+00  0.00000E+00  0.00000E+00  0.00000E+00  0.00000E+00  0.00000E+00    0.53216E+02  0.55314E+02 -0.10853E+03  0.98661E+01  0.58970E+01  0.25372E+02      982.00
  0.23968E-01  0.18215E+03    0.12500E-01  0.12500E-01 -0.25000E-01  0.00000E+00  0.00000E+00  0.00000E+00    0.52104E+02  0.62653E+02 -0.11476E+03  0.94662E+01  0.65989E+01  0.31963E+02      982.00
  0.47594E-01  0.19153E+03    0.25000E-01  0.25000E-01 -0.50000E-01  0.00000E+00  0.00000E+00  0.00000E+00    0.48787E+02  0.70319E+02 -0.11911E+03  0.76453E+01  0.67119E+01  0.36996E+02      982.00
  0.70914E-01  0.18242E+03    0.37500E-01  0.37500E-01 -0.75000E-01  0.00000E+00  0.00000E+00  0.00000E+00    0.45009E+02  0.68892E+02 -0.11390E+03  0.53515E+01  0.61319E+01  0.33965E+02      982.00
  0.94328E-01  0.18542E+03    0.50000E-01  0.50000E-01 -0.10000E+00  0.00000E+00  0.00000E+00  0.00000E+00    0.43668E+02  0.71291E+02 -0.11496E+03  0.55319E+01  0.68095E+01  0.35788E+02      982.00
  0.11758E+00  0.19748E+03    0.62500E-01  0.62500E-01 -0.12500E+00  0.00000E+00  0.00000E+00  0.00000E+00    0.43670E+02  0.76907E+02 -0.12058E+03  0.65729E+01  0.78216E+01  0.41407E+02      982.00
  0.14047E+00  0.21763E+03    0.75000E-01  0.75000E-01 -0.15000E+00  0.00000E+00  0.00000E+00  0.00000E+00    0.44688E+02  0.85341E+02 -0.13003E+03  0.80113E+01  0.89551E+01  0.50496E+02      982.00
  0.16288E+00  0.24604E+03    0.87500E-01  0.87500E-01 -0.17500E+00  0.00000E+00  0.00000E+00  0.00000E+00    0.46579E+02  0.96580E+02 -0.14316E+03  0.96384E+01  0.10153E+02  0.63139E+02      982.00
  0.18470E+00  0.28050E+03    0.10000E+00  0.10000E+00 -0.20000E+00  0.00000E+00  0.00000E+00  0.00000E+00    0.49286E+02  0.10956E+03 -0.15884E+03  0.11219E+02  0.11251E+02  0.78375E+02      982.00
  0.20594E+00  0.31594E+03    0.11250E+00  0.11250E+00 -0.22500E+00  0.00000E+00  0.00000E+00  0.00000E+00    0.52550E+02  0.12227E+03 -0.17482E+03  0.12441E+02  0.12027E+02  0.94001E+02      982.00
  0.22669E+00  0.34786E+03    0.12500E+00  0.12500E+00 -0.25000E+00  0.00000E+00  0.00000E+00  0.00000E+00    0.56135E+02  0.13303E+03 -0.18917E+03  0.13155E+02  0.12416E+02  0.10813E+03      982.00
  0.24708E+00  0.37377E+03    0.13750E+00  0.13750E+00 -0.27500E+00  0.00000E+00  0.00000E+00  0.00000E+00    0.59627E+02  0.14127E+03 -0.20090E+03  0.13424E+02  0.12432E+02  0.11957E+03      982.00
  0.26723E+00  0.39383E+03    0.15000E+00  0.15000E+00 -0.30000E+00  0.00000E+00  0.00000E+00  0.00000E+00    0.62795E+02  0.14733E+03 -0.21013E+03  0.13377E+02  0.12181E+02  0.12834E+03      982.00
  0.28724E+00  0.40900E+03    0.16250E+00  0.16250E+00 -0.32500E+00  0.00000E+00  0.00000E+00  0.00000E+00    0.65524E+02  0.15177E+03 -0.21729E+03  0.13118E+02  0.11753E+02  0.13482E+03      982.00
  0.30717E+00  0.42034E+03    0.17500E+00  0.17500E+00 -0.35000E+00  0.00000E+00  0.00000E+00  0.00000E+00    0.67876E+02  0.15498E+03 -0.22286E+03  0.12724E+02  0.11224E+02  0.13951E+03      982.00
  0.32705E+00  0.42870E+03    0.18750E+00  0.18750E+00 -0.37500E+00  0.00000E+00  0.00000E+00  0.00000E+00    0.69855E+02  0.15733E+03 -0.22718E+03  0.12238E+02  0.10633E+02  0.14274E+03      982.00
  0.34692E+00  0.43465E+03    0.20000E+00  0.20000E+00 -0.40000E+00  0.00000E+00  0.00000E+00  0.00000E+00    0.71601E+02  0.15894E+03 -0.23054E+03  0.11702E+02  0.10013E+02  0.14480E+03      982.00
  0.36681E+00  0.43874E+03    0.21250E+00  0.21250E+00 -0.42500E+00  0.00000E+00  0.00000E+00  0.00000E+00    0.73127E+02  0.16002E+03 -0.23315E+03  0.11129E+02  0.93824E+01  0.14593E+03      982.00
  0.38674E+00  0.44124E+03    0.22500E+00  0.22500E+00 -0.45000E+00  0.00000E+00  0.00000E+00  0.00000E+00    0.74495E+02  0.16065E+03 -0.23515E+03  0.10536E+02  0.87520E+01  0.14623E+03      982.00
  0.40672E+00  0.44237E+03    0.23750E+00  0.23750E+00 -0.47500E+00  0.00000E+00  0.00000E+00  0.00000E+00    0.75722E+02  0.16091E+03 -0.23663E+03  0.99408E+01  0.81316E+01  0.14579E+03      982.00
  0.42678E+00  0.43858E+03    0.25000E+00  0.25000E+00 -0.50000E+00  0.00000E+00  0.00000E+00  0.00000E+00    0.75767E+02  0.16011E+03 -0.23587E+03  0.93574E+01  0.76222E+01  0.14306E+03      982.00
  0.44695E+00  0.43474E+03    0.26250E+00  0.26250E+00 -0.52500E+00  0.00000E+00  0.00000E+00  0.00000E+00    0.76129E+02  0.15900E+03 -0.23513E+03  0.88232E+01  0.71436E+01  0.14032E+03      982.00
  0.46723E+00  0.43074E+03    0.27500E+00  0.27500E+00 -0.55000E+00  0.00000E+00  0.00000E+00  0.00000E+00    0.76580E+02  0.15777E+03 -0.23435E+03  0.83303E+01  0.66861E+01  0.13746E+03      982.00
  0.48763E+00  0.42659E+03    0.28750E+00  0.28750E+00 -0.57500E+00  0.00000E+00  0.00000E+00  0.00000E+00    0.77086E+02  0.15646E+03 -0.23355E+03  0.78776E+01  0.62515E+01  0.13445E+03      982.00
  0.50816E+00  0.42219E+03    0.30000E+00  0.30000E+00 -0.60000E+00  0.00000E+00  0.00000E+00  0.00000E+00    0.77668E+02  0.15501E+03 -0.23268E+03  0.74759E+01  0.58477E+01  0.13125E+03      982.00
  0.52883E+00  0.41780E+03    0.31250E+00  0.31250E+00 -0.62500E+00  0.00000E+00  0.00000E+00  0.00000E+00    0.78274E+02  0.15356E+03 -0.23184E+03  0.71088E+01  0.54638E+01  0.12797E+03      982.00
  0.54964E+00  0.41334E+03    0.32500E+00  0.32500E+00 -0.65000E+00  0.00000E+00  0.00000E+00  0.00000E+00    0.78925E+02  0.15207E+03 -0.23099E+03  0.67862E+01  0.51078E+01  0.12459E+03      982.00
  0.57060E+00  0.40884E+03    0.33750E+00  0.33750E+00 -0.67500E+00  0.00000E+00  0.00000E+00  0.00000E+00    0.79620E+02  0.15053E+03 -0.23015E+03  0.65090E+01  0.47805E+01  0.12111E+03      982.00
  0.59171E+00  0.40444E+03    0.35000E+00  0.35000E+00 -0.70000E+00  0.00000E+00  0.00000E+00  0.00000E+00    0.80360E+02  0.14900E+03 -0.22936E+03  0.62674E+01  0.44823E+01  0.11760E+03      982.00
  0.61297E+00  0.39981E+03    0.36250E+00  0.36250E+00 -0.72500E+00  0.00000E+00  0.00000E+00  0.00000E+00    0.81173E+02  0.14733E+03 -0.22850E+03  0.61043E+01  0.42167E+01  0.11390E+03      982.00
  0.63441E+00  0.39546E+03    0.37500E+00  0.37500E+00 -0.75000E+00  0.00000E+00  0.00000E+00  0.00000E+00    0.81995E+02  0.14576E+03 -0.22776E+03  0.59604E+01  0.39744E+01  0.11026E+03      982.00
  0.65600E+00  0.39125E+03    0.38750E+00  0.38750E+00 -0.77500E+00  0.00000E+00  0.00000E+00  0.00000E+00    0.82860E+02  0.14421E+03 -0.22707E+03  0.58586E+01  0.37595E+01  0.10660E+03      982.00
  0.67777E+00  0.38721E+03    0.40000E+00  0.40000E+00 -0.80000E+00  0.00000E+00  0.00000E+00  0.00000E+00    0.83766E+02  0.14269E+03 -0.22646E+03  0.57965E+01  0.35706E+01  0.10296E+03      982.00
  0.69970E+00  0.38338E+03    0.41250E+00  0.41250E+00 -0.82500E+00  0.00000E+00  0.00000E+00  0.00000E+00    0.84711E+02  0.14121E+03 -0.22592E+03  0.57712E+01  0.34062E+01  0.99350E+02      982.00
  0.72180E+00  0.37978E+03    0.42500E+00  0.42500E+00 -0.85000E+00  0.00000E+00  0.00000E+00  0.00000E+00    0.85695E+02  0.13978E+03 -0.22547E+03  0.57793E+01  0.32647E+01  0.95785E+02      982.00
  0.74406E+00  0.37644E+03    0.43750E+00  0.43750E+00 -0.87500E+00  0.00000E+00  0.00000E+00  0.00000E+00    0.86715E+02  0.13840E+03 -0.22512E+03  0.58173E+01  0.31442E+01  0.92282E+02      982.00
  0.76649E+00  0.37337E+03    0.45000E+00  0.45000E+00 -0.90000E+00  0.00000E+00  0.00000E+00  0.00000E+00    0.87769E+02  0.13709E+03 -0.22486E+03  0.58816E+01  0.30428E+01  0.88855E+02      982.00
  0.78907E+00  0.37039E+03    0.46250E+00  0.46250E+00 -0.92500E+00  0.00000E+00  0.00000E+00  0.00000E+00    0.88866E+02  0.13575E+03 -0.22461E+03  0.60013E+01  0.29583E+01  0.85429E+02      982.00
  0.81181E+00  0.36792E+03    0.47500E+00  0.47500E+00 -0.95000E+00  0.00000E+00  0.00000E+00  0.00000E+00    0.89976E+02  0.13459E+03 -0.22457E+03  0.61020E+01  0.28892E+01  0.82189E+02      982.00
  0.83470E+00  0.36573E+03    0.48750E+00  0.48750E+00 -0.97500E+00  0.00000E+00  0.00000E+00  0.00000E+00    0.91115E+02  0.13351E+03 -0.22462E+03  0.62180E+01  0.28339E+01  0.79051E+02      982.00
  0.85773E+00  0.36390E+03    0.50000E+00  0.50000E+00 -0.10000E+01  0.00000E+00  0.00000E+00  0.00000E+00    0.92271E+02  0.13254E+03 -0.22481E+03  0.63505E+01  0.27887E+01  0.76033E+02      982.00
