          Evm          Svm            E11          E22          E33          E23          E13          E12         SDEV11       SDEV22       SDEV33       SDEV23       SDEV13       SDEV12      TEMP
  0.00000E+00  0.15656E+03    0.00000E+00  0.00000E+00  0.00000E+00  0.00000E+00  0.00000E+00  0.00000E+00    0.48052E+02  0.49435E+02 -0.97486E+02  0.85144E+00  0.21277E+01  0.32199E+02      982.00
  0.23351E-01  0.15723E+03    0.12500E-01  0.12500E-01 -0.25000E-01  0.00000E+00  0.00000E+00  0.00000E+00    0.47273E+02  0.50113E+02 -0.97386E+02  0.69733E+00  0.25227E+01  0.33440E+02      982.00
  0.46578E-01  0.16029E+03    0.25000E-01  0.25000E-01 -0.50000E-01  0.00000E+00  0.00000E+00  0.00000E+00    0.47231E+02  0.51116E+02 -0.98347E+02  0.66194E+00  0.27952E+01  0.36038E+02      982.00
  0.69586E-01  0.16619E+03    0.37500E-01  0.37500E-01 -0.75000E-01  0.00000E+00  0.00000E+00  0.00000E+00    0.47866E+02  0.52661E+02 -0.10053E+03  0.72082E+00  0.29941E+01  0.40152E+02      982.00
  0.92269E-01  0.17580E+03    0.50000E-01  0.50000E-01 -0.10000E+00  0.00000E+00  0.00000E+00  0.00000E+00    0.49246E+02  0.54993E+02 -0.10424E+03  0.87541E+00  0.31760E+01  0.46189E+02      982.00
  0.11450E+00  0.19033E+03    0.62500E-01  0.62500E-01 -0.12500E+00  0.00000E+00  0.00000E+00  0.00000E+00    0.51499E+02  0.58389E+02 -0.10989E+03  0.11250E+01  0.33827E+01  0.54717E+02      982.00
  0.13615E+00  0.21143E+03    0.75000E-01  0.75000E-01 -0.15000E+00  0.00000E+00  0.00000E+00  0.00000E+00    0.54819E+02  0.63182E+02 -0.11800E+03  0.14678E+01  0.36512E+01  0.66515E+02      982.00
  0.15708E+00  0.24109E+03    0.87500E-01  0.87500E-01 -0.17500E+00  0.00000E+00  0.00000E+00  0.00000E+00    0.59436E+02  0.69745E+02 -0.12918E+03  0.18955E+01  0.40196E+01  0.82535E+02      982.00
  0.17718E+00  0.28034E+03    0.10000E+00  0.10000E+00 -0.20000E+00  0.00000E+00  0.00000E+00  0.00000E+00    0.65443E+02  0.78228E+02 -0.14367E+03  0.24010E+01  0.44855E+01  0.10320E+03      982.00
  0.19640E+00  0.32691E+03    0.11250E+00  0.11250E+00 -0.22500E+00  0.00000E+00  0.00000E+00  0.00000E+00    0.72458E+02  0.88100E+02 -0.16056E+03  0.29358E+01  0.49959E+01  0.12726E+03      982.00
  0.21481E+00  0.37376E+03    0.12500E+00  0.12500E+00 -0.25000E+00  0.00000E+00  0.00000E+00  0.00000E+00    0.79455E+02  0.97913E+02 -0.17737E+03  0.34116E+01  0.54437E+01  0.15114E+03      982.00
  0.23261E+00  0.41396E+03    0.13750E+00  0.13750E+00 -0.27500E+00  0.00000E+00  0.00000E+00  0.00000E+00    0.85460E+02  0.10629E+03 -0.19175E+03  0.37693E+01  0.57473E+01  0.17144E+03      982.00
  0.24998E+00  0.44605E+03    0.15000E+00  0.15000E+00 -0.30000E+00  0.00000E+00  0.00000E+00  0.00000E+00    0.90214E+02  0.11295E+03 -0.20317E+03  0.39477E+01  0.59549E+01  0.18757E+03      982.00
  0.26706E+00  0.47020E+03    0.16250E+00  0.16250E+00 -0.32500E+00  0.00000E+00  0.00000E+00  0.00000E+00    0.93933E+02  0.11793E+03 -0.21187E+03  0.40850E+01  0.60262E+01  0.19959E+03      982.00
  0.28396E+00  0.48920E+03    0.17500E+00  0.17500E+00 -0.35000E+00  0.00000E+00  0.00000E+00  0.00000E+00    0.96915E+02  0.12182E+03 -0.21874E+03  0.41400E+01  0.60430E+01  0.20899E+03      982.00
  0.30072E+00  0.50379E+03    0.18750E+00  0.18750E+00 -0.37500E+00  0.00000E+00  0.00000E+00  0.00000E+00    0.99275E+02  0.12476E+03 -0.22403E+03  0.41216E+01  0.60295E+01  0.21620E+03      982.00
  0.31740E+00  0.51544E+03    0.20000E+00  0.20000E+00 -0.40000E+00  0.00000E+00  0.00000E+00  0.00000E+00    0.10122E+03  0.12706E+03 -0.22828E+03  0.40508E+01  0.59997E+01  0.22193E+03      982.00
  0.33401E+00  0.52450E+03    0.21250E+00  0.21250E+00 -0.42500E+00  0.00000E+00  0.00000E+00  0.00000E+00    0.10281E+03  0.12883E+03 -0.23164E+03  0.39616E+01  0.59357E+01  0.22636E+03      982.00
  0.35057E+00  0.53220E+03    0.22500E+00  0.22500E+00 -0.45000E+00  0.00000E+00  0.00000E+00  0.00000E+00    0.10418E+03  0.13030E+03 -0.23448E+03  0.38273E+01  0.58819E+01  0.23012E+03      982.00
  0.36709E+00  0.53820E+03    0.23750E+00  0.23750E+00 -0.47500E+00  0.00000E+00  0.00000E+00  0.00000E+00    0.10530E+03  0.13144E+03 -0.23674E+03  0.36874E+01  0.58073E+01  0.23302E+03      982.00
  0.38359E+00  0.54356E+03    0.25000E+00  0.25000E+00 -0.50000E+00  0.00000E+00  0.00000E+00  0.00000E+00    0.10631E+03  0.13241E+03 -0.23872E+03  0.35136E+01  0.57547E+01  0.23564E+03      982.00
  0.40006E+00  0.54791E+03    0.26250E+00  0.26250E+00 -0.52500E+00  0.00000E+00  0.00000E+00  0.00000E+00    0.10715E+03  0.13329E+03 -0.24044E+03  0.33845E+01  0.56322E+01  0.23769E+03      982.00
  0.41651E+00  0.55185E+03    0.27500E+00  0.27500E+00 -0.55000E+00  0.00000E+00  0.00000E+00  0.00000E+00    0.10792E+03  0.13400E+03 -0.24193E+03  0.32205E+01  0.55535E+01  0.23959E+03      982.00
  0.43295E+00  0.55129E+03    0.28750E+00  0.28750E+00 -0.57500E+00  0.00000E+00  0.00000E+00  0.00000E+00    0.10786E+03  0.13394E+03 -0.24180E+03  0.29996E+01  0.53677E+01  0.23927E+03      982.00
  0.44940E+00  0.55147E+03    0.30000E+00  0.30000E+00 -0.60000E+00  0.00000E+00  0.00000E+00  0.00000E+00    0.10802E+03  0.13390E+03 -0.24191E+03  0.28321E+01  0.52580E+01  0.23933E+03      982.00
  0.46585E+00  0.55154E+03    0.31250E+00  0.31250E+00 -0.62500E+00  0.00000E+00  0.00000E+00  0.00000E+00    0.10809E+03  0.13391E+03 -0.24200E+03  0.26510E+01  0.51045E+01  0.23933E+03      982.00
  0.48230E+00  0.55155E+03    0.32500E+00  0.32500E+00 -0.65000E+00  0.00000E+00  0.00000E+00  0.00000E+00    0.10819E+03  0.13385E+03 -0.24204E+03  0.25633E+01  0.50115E+01  0.23930E+03      982.00
  0.49876E+00  0.55158E+03    0.33750E+00  0.33750E+00 -0.67500E+00  0.00000E+00  0.00000E+00  0.00000E+00    0.10822E+03  0.13389E+03 -0.24211E+03  0.24202E+01  0.48443E+01  0.23928E+03      982.00
  0.51522E+00  0.55159E+03    0.35000E+00  0.35000E+00 -0.70000E+00  0.00000E+00  0.00000E+00  0.00000E+00    0.10829E+03  0.13387E+03 -0.24215E+03  0.23543E+01  0.47397E+01  0.23926E+03      982.00
  0.53168E+00  0.55159E+03    0.36250E+00  0.36250E+00 -0.72500E+00  0.00000E+00  0.00000E+00  0.00000E+00    0.10830E+03  0.13391E+03 -0.24221E+03  0.22372E+01  0.45654E+01  0.23922E+03      982.00
  0.54815E+00  0.55157E+03    0.37500E+00  0.37500E+00 -0.75000E+00  0.00000E+00  0.00000E+00  0.00000E+00    0.10833E+03  0.13392E+03 -0.24225E+03  0.21553E+01  0.44175E+01  0.23919E+03      982.00
  0.56462E+00  0.55156E+03    0.38750E+00  0.38750E+00 -0.77500E+00  0.00000E+00  0.00000E+00  0.00000E+00    0.10838E+03  0.13390E+03 -0.24228E+03  0.20878E+01  0.42796E+01  0.23916E+03      982.00
  0.58109E+00  0.55155E+03    0.40000E+00  0.40000E+00 -0.80000E+00  0.00000E+00  0.00000E+00  0.00000E+00    0.10843E+03  0.13388E+03 -0.24231E+03  0.20261E+01  0.41442E+01  0.23913E+03      982.00
  0.59757E+00  0.55154E+03    0.41250E+00  0.41250E+00 -0.82500E+00  0.00000E+00  0.00000E+00  0.00000E+00    0.10847E+03  0.13386E+03 -0.24233E+03  0.19685E+01  0.40112E+01  0.23911E+03      982.00
  0.61404E+00  0.55152E+03    0.42500E+00  0.42500E+00 -0.85000E+00  0.00000E+00  0.00000E+00  0.00000E+00    0.10852E+03  0.13384E+03 -0.24236E+03  0.19138E+01  0.38810E+01  0.23908E+03      982.00
  0.63052E+00  0.55150E+03    0.43750E+00  0.43750E+00 -0.87500E+00  0.00000E+00  0.00000E+00  0.00000E+00    0.10856E+03  0.13381E+03 -0.24237E+03  0.18615E+01  0.37542E+01  0.23906E+03      982.00
  0.64700E+00  0.55148E+03    0.45000E+00  0.45000E+00 -0.90000E+00  0.00000E+00  0.00000E+00  0.00000E+00    0.10861E+03  0.13378E+03 -0.24239E+03  0.18111E+01  0.36311E+01  0.23903E+03      982.00
  0.66349E+00  0.55145E+03    0.46250E+00  0.46250E+00 -0.92500E+00  0.00000E+00  0.00000E+00  0.00000E+00    0.10866E+03  0.13374E+03 -0.24240E+03  0.17619E+01  0.35121E+01  0.23901E+03      982.00
  0.67997E+00  0.55143E+03    0.47500E+00  0.47500E+00 -0.95000E+00  0.00000E+00  0.00000E+00  0.00000E+00    0.10870E+03  0.13370E+03 -0.24241E+03  0.17138E+01  0.33974E+01  0.23899E+03      982.00
  0.69645E+00  0.55140E+03    0.48750E+00  0.48750E+00 -0.97500E+00  0.00000E+00  0.00000E+00  0.00000E+00    0.10875E+03  0.13366E+03 -0.24241E+03  0.16664E+01  0.32869E+01  0.23897E+03      982.00
  0.71294E+00  0.55136E+03    0.50000E+00  0.50000E+00 -0.10000E+01  0.00000E+00  0.00000E+00  0.00000E+00    0.10876E+03  0.13366E+03 -0.24241E+03  0.16302E+01  0.31971E+01  0.23894E+03      982.00
