          Evm          Svm            E11          E22          E33          E23          E13          E12         SDEV11       SDEV22       SDEV33       SDEV23       SDEV13       SDEV12      TEMP
  0.00000E+00  0.17460E+03    0.00000E+00  0.00000E+00  0.00000E+00  0.00000E+00  0.00000E+00  0.00000E+00    0.49399E+02  0.59169E+02 -0.10857E+03 -0.56028E+01 -0.42453E+01  0.35333E+02      982.00
  0.23318E-01  0.16284E+03    0.12500E-01  0.12500E-01 -0.25000E-01  0.00000E+00  0.00000E+00  0.00000E+00    0.45748E+02  0.56630E+02 -0.10238E+03 -0.36220E+01 -0.33706E+01  0.30405E+02      982.00
  0.46893E-01  0.16107E+03    0.25000E-01  0.25000E-01 -0.50000E-01  0.00000E+00  0.00000E+00  0.00000E+00    0.43984E+02  0.57064E+02 -0.10105E+03 -0.34060E+01 -0.37664E+01  0.30345E+02      982.00
  0.70420E-01  0.16467E+03    0.37500E-01  0.37500E-01 -0.75000E-01  0.00000E+00  0.00000E+00  0.00000E+00    0.43283E+02  0.59114E+02 -0.10240E+03 -0.37466E+01 -0.43593E+01  0.32853E+02      982.00
  0.93738E-01  0.17347E+03    0.50000E-01  0.50000E-01 -0.10000E+00  0.00000E+00  0.00000E+00  0.00000E+00    0.43305E+02  0.62837E+02 -0.10614E+03 -0.42817E+01 -0.50682E+01  0.37972E+02      982.00
  0.11668E+00  0.18760E+03    0.62500E-01  0.62500E-01 -0.12500E+00  0.00000E+00  0.00000E+00  0.00000E+00    0.44115E+02  0.68132E+02 -0.11225E+03 -0.50733E+01 -0.58353E+01  0.45587E+02      982.00
  0.13912E+00  0.20911E+03    0.75000E-01  0.75000E-01 -0.15000E+00  0.00000E+00  0.00000E+00  0.00000E+00    0.45665E+02  0.75720E+02 -0.12139E+03 -0.61004E+01 -0.67590E+01  0.56715E+02      982.00
  0.16089E+00  0.23976E+03    0.87500E-01  0.87500E-01 -0.17500E+00  0.00000E+00  0.00000E+00  0.00000E+00    0.48022E+02  0.86074E+02 -0.13410E+03 -0.74098E+01 -0.78578E+01  0.72084E+02      982.00
  0.18186E+00  0.28041E+03    0.10000E+00  0.10000E+00 -0.20000E+00  0.00000E+00  0.00000E+00  0.00000E+00    0.51189E+02  0.99349E+02 -0.15054E+03 -0.89859E+01 -0.91129E+01  0.92035E+02      982.00
  0.20199E+00  0.32791E+03    0.11250E+00  0.11250E+00 -0.22500E+00  0.00000E+00  0.00000E+00  0.00000E+00    0.54895E+02  0.11445E+03 -0.16935E+03 -0.10625E+02 -0.10367E+02  0.11500E+03      982.00
  0.22136E+00  0.37370E+03    0.12500E+00  0.12500E+00 -0.25000E+00  0.00000E+00  0.00000E+00  0.00000E+00    0.58648E+02  0.12867E+03 -0.18732E+03 -0.12060E+02 -0.11333E+02  0.13687E+03      982.00
  0.24016E+00  0.41221E+03    0.13750E+00  0.13750E+00 -0.27500E+00  0.00000E+00  0.00000E+00  0.00000E+00    0.61982E+02  0.14039E+03 -0.20237E+03 -0.13111E+02 -0.11935E+02  0.15516E+03      982.00
  0.25857E+00  0.44218E+03    0.15000E+00  0.15000E+00 -0.30000E+00  0.00000E+00  0.00000E+00  0.00000E+00    0.64780E+02  0.14931E+03 -0.21409E+03 -0.13847E+02 -0.12220E+02  0.16932E+03      982.00
  0.27672E+00  0.46513E+03    0.16250E+00  0.16250E+00 -0.32500E+00  0.00000E+00  0.00000E+00  0.00000E+00    0.67035E+02  0.15603E+03 -0.22307E+03 -0.14341E+02 -0.12293E+02  0.18017E+03      982.00
  0.29471E+00  0.48312E+03    0.17500E+00  0.17500E+00 -0.35000E+00  0.00000E+00  0.00000E+00  0.00000E+00    0.68813E+02  0.16123E+03 -0.23004E+03 -0.14662E+02 -0.12249E+02  0.18872E+03      982.00
  0.31256E+00  0.49729E+03    0.18750E+00  0.18750E+00 -0.37500E+00  0.00000E+00  0.00000E+00  0.00000E+00    0.70196E+02  0.16526E+03 -0.23546E+03 -0.14869E+02 -0.12128E+02  0.19551E+03      982.00
  0.33032E+00  0.50878E+03    0.20000E+00  0.20000E+00 -0.40000E+00  0.00000E+00  0.00000E+00  0.00000E+00    0.71249E+02  0.16852E+03 -0.23976E+03 -0.14991E+02 -0.11968E+02  0.20109E+03      982.00
  0.34799E+00  0.51797E+03    0.21250E+00  0.21250E+00 -0.42500E+00  0.00000E+00  0.00000E+00  0.00000E+00    0.72029E+02  0.17109E+03 -0.24312E+03 -0.15057E+02 -0.11784E+02  0.20563E+03      982.00
  0.36559E+00  0.52586E+03    0.22500E+00  0.22500E+00 -0.45000E+00  0.00000E+00  0.00000E+00  0.00000E+00    0.72594E+02  0.17329E+03 -0.24588E+03 -0.15073E+02 -0.11590E+02  0.20960E+03      982.00
  0.38313E+00  0.53277E+03    0.23750E+00  0.23750E+00 -0.47500E+00  0.00000E+00  0.00000E+00  0.00000E+00    0.72983E+02  0.17522E+03 -0.24821E+03 -0.15053E+02 -0.11388E+02  0.21317E+03      982.00
  0.40060E+00  0.53828E+03    0.25000E+00  0.25000E+00 -0.50000E+00  0.00000E+00  0.00000E+00  0.00000E+00    0.73230E+02  0.17672E+03 -0.24995E+03 -0.15008E+02 -0.11185E+02  0.21609E+03      982.00
  0.41801E+00  0.53955E+03    0.26250E+00  0.26250E+00 -0.52500E+00  0.00000E+00  0.00000E+00  0.00000E+00    0.72571E+02  0.17732E+03 -0.24989E+03 -0.14774E+02 -0.10981E+02  0.21708E+03      982.00
  0.43538E+00  0.54052E+03    0.27500E+00  0.27500E+00 -0.55000E+00  0.00000E+00  0.00000E+00  0.00000E+00    0.72097E+02  0.17763E+03 -0.24973E+03 -0.14541E+02 -0.10772E+02  0.21795E+03      982.00
  0.45271E+00  0.54145E+03    0.28750E+00  0.28750E+00 -0.57500E+00  0.00000E+00  0.00000E+00  0.00000E+00    0.71671E+02  0.17788E+03 -0.24955E+03 -0.14309E+02 -0.10567E+02  0.21881E+03      982.00
  0.46999E+00  0.54233E+03    0.30000E+00  0.30000E+00 -0.60000E+00  0.00000E+00  0.00000E+00  0.00000E+00    0.71263E+02  0.17809E+03 -0.24936E+03 -0.14072E+02 -0.10364E+02  0.21966E+03      982.00
  0.48723E+00  0.54318E+03    0.31250E+00  0.31250E+00 -0.62500E+00  0.00000E+00  0.00000E+00  0.00000E+00    0.70863E+02  0.17829E+03 -0.24915E+03 -0.13831E+02 -0.10161E+02  0.22048E+03      982.00
  0.50443E+00  0.54398E+03    0.32500E+00  0.32500E+00 -0.65000E+00  0.00000E+00  0.00000E+00  0.00000E+00    0.70466E+02  0.17847E+03 -0.24894E+03 -0.13583E+02 -0.99588E+01  0.22127E+03      982.00
  0.52159E+00  0.54474E+03    0.33750E+00  0.33750E+00 -0.67500E+00  0.00000E+00  0.00000E+00  0.00000E+00    0.70073E+02  0.17864E+03 -0.24871E+03 -0.13328E+02 -0.97559E+01  0.22204E+03      982.00
  0.53871E+00  0.54546E+03    0.35000E+00  0.35000E+00 -0.70000E+00  0.00000E+00  0.00000E+00  0.00000E+00    0.69682E+02  0.17880E+03 -0.24848E+03 -0.13066E+02 -0.95523E+01  0.22278E+03      982.00
  0.55580E+00  0.54638E+03    0.36250E+00  0.36250E+00 -0.72500E+00  0.00000E+00  0.00000E+00  0.00000E+00    0.69223E+02  0.17911E+03 -0.24833E+03 -0.12781E+02 -0.93509E+01  0.22359E+03      982.00
  0.57284E+00  0.54701E+03    0.37500E+00  0.37500E+00 -0.75000E+00  0.00000E+00  0.00000E+00  0.00000E+00    0.68841E+02  0.17925E+03 -0.24809E+03 -0.12507E+02 -0.91459E+01  0.22425E+03      982.00
  0.58985E+00  0.54751E+03    0.38750E+00  0.38750E+00 -0.77500E+00  0.00000E+00  0.00000E+00  0.00000E+00    0.68510E+02  0.17933E+03 -0.24784E+03 -0.12246E+02 -0.89441E+01  0.22484E+03      982.00
  0.60682E+00  0.54804E+03    0.40000E+00  0.40000E+00 -0.80000E+00  0.00000E+00  0.00000E+00  0.00000E+00    0.68134E+02  0.17947E+03 -0.24760E+03 -0.11960E+02 -0.87374E+01  0.22543E+03      982.00
  0.62377E+00  0.54854E+03    0.41250E+00  0.41250E+00 -0.82500E+00  0.00000E+00  0.00000E+00  0.00000E+00    0.67758E+02  0.17961E+03 -0.24736E+03 -0.11671E+02 -0.85312E+01  0.22599E+03      982.00
  0.64068E+00  0.54924E+03    0.42500E+00  0.42500E+00 -0.85000E+00  0.00000E+00  0.00000E+00  0.00000E+00    0.67260E+02  0.17995E+03 -0.24721E+03 -0.11350E+02 -0.83222E+01  0.22660E+03      982.00
  0.65756E+00  0.54965E+03    0.43750E+00  0.43750E+00 -0.87500E+00  0.00000E+00  0.00000E+00  0.00000E+00    0.66899E+02  0.18008E+03 -0.24698E+03 -0.11059E+02 -0.81199E+01  0.22708E+03      982.00
  0.67441E+00  0.55002E+03    0.45000E+00  0.45000E+00 -0.90000E+00  0.00000E+00  0.00000E+00  0.00000E+00    0.66539E+02  0.18022E+03 -0.24676E+03 -0.10767E+02 -0.79191E+01  0.22752E+03      982.00
  0.69123E+00  0.55036E+03    0.46250E+00  0.46250E+00 -0.92500E+00  0.00000E+00  0.00000E+00  0.00000E+00    0.66184E+02  0.18036E+03 -0.24654E+03 -0.10477E+02 -0.77211E+01  0.22793E+03      982.00
  0.70803E+00  0.55067E+03    0.47500E+00  0.47500E+00 -0.95000E+00  0.00000E+00  0.00000E+00  0.00000E+00    0.65836E+02  0.18050E+03 -0.24634E+03 -0.10188E+02 -0.75261E+01  0.22830E+03      982.00
  0.72480E+00  0.55100E+03    0.48750E+00  0.48750E+00 -0.97500E+00  0.00000E+00  0.00000E+00  0.00000E+00    0.65498E+02  0.18067E+03 -0.24617E+03 -0.99040E+01 -0.73384E+01  0.22865E+03      982.00
  0.74156E+00  0.55126E+03    0.50000E+00  0.50000E+00 -0.10000E+01  0.00000E+00  0.00000E+00  0.00000E+00    0.65145E+02  0.18084E+03 -0.24598E+03 -0.96206E+01 -0.71499E+01  0.22896E+03      982.00
