          Evm          Svm            E11          E22          E33          E23          E13          E12         SDEV11       SDEV22       SDEV33       SDEV23       SDEV13       SDEV12      TEMP
  0.00000E+00  0.15653E+03    0.00000E+00  0.00000E+00  0.00000E+00  0.00000E+00  0.00000E+00  0.00000E+00    0.44315E+02  0.57715E+02 -0.10203E+03  0.89604E+01  0.71947E+01  0.13507E+02      982.00
  0.24444E-01  0.15557E+03    0.12500E-01  0.12500E-01 -0.25000E-01  0.00000E+00  0.00000E+00  0.00000E+00    0.44478E+02  0.56763E+02 -0.10124E+03  0.83620E+01  0.63816E+01  0.15211E+02      982.00
  0.48848E-01  0.16097E+03    0.25000E-01  0.25000E-01 -0.50000E-01  0.00000E+00  0.00000E+00  0.00000E+00    0.47333E+02  0.56939E+02 -0.10427E+03  0.81931E+01  0.63468E+01  0.18764E+02      982.00
  0.73140E-01  0.17491E+03    0.37500E-01  0.37500E-01 -0.75000E-01  0.00000E+00  0.00000E+00  0.00000E+00    0.54091E+02  0.58108E+02 -0.11220E+03  0.83624E+01  0.69763E+01  0.25176E+02      982.00
  0.97195E-01  0.19882E+03    0.50000E-01  0.50000E-01 -0.10000E+00  0.00000E+00  0.00000E+00  0.00000E+00    0.66019E+02  0.59368E+02 -0.12539E+03  0.87524E+01  0.80908E+01  0.35098E+02      982.00
  0.12084E+00  0.21737E+03    0.62500E-01  0.62500E-01 -0.12500E+00  0.00000E+00  0.00000E+00  0.00000E+00    0.76562E+02  0.58663E+02 -0.13522E+03  0.85410E+01  0.88259E+01  0.42475E+02      982.00
  0.14417E+00  0.22979E+03    0.75000E-01  0.75000E-01 -0.15000E+00  0.00000E+00  0.00000E+00  0.00000E+00    0.81897E+02  0.59644E+02 -0.14154E+03  0.76611E+01  0.87360E+01  0.48136E+02      982.00
  0.16727E+00  0.25074E+03    0.87500E-01  0.87500E-01 -0.17500E+00  0.00000E+00  0.00000E+00  0.00000E+00    0.88529E+02  0.63496E+02 -0.15203E+03  0.70758E+01  0.83820E+01  0.57849E+02      982.00
  0.19001E+00  0.27889E+03    0.10000E+00  0.10000E+00 -0.20000E+00  0.00000E+00  0.00000E+00  0.00000E+00    0.97110E+02  0.68822E+02 -0.16593E+03  0.68553E+01  0.80785E+01  0.70455E+02      982.00
  0.21232E+00  0.30794E+03    0.11250E+00  0.11250E+00 -0.22500E+00  0.00000E+00  0.00000E+00  0.00000E+00    0.10600E+03  0.74206E+02 -0.18021E+03  0.67805E+01  0.77758E+01  0.83026E+02      982.00
  0.23426E+00  0.33302E+03    0.12500E+00  0.12500E+00 -0.25000E+00  0.00000E+00  0.00000E+00  0.00000E+00    0.11386E+03  0.78768E+02 -0.19262E+03  0.67286E+01  0.74243E+01  0.93443E+02      982.00
  0.25596E+00  0.35273E+03    0.13750E+00  0.13750E+00 -0.27500E+00  0.00000E+00  0.00000E+00  0.00000E+00    0.12026E+03  0.82326E+02 -0.20259E+03  0.66693E+01  0.70408E+01  0.10117E+03      982.00
  0.27749E+00  0.36753E+03    0.15000E+00  0.15000E+00 -0.30000E+00  0.00000E+00  0.00000E+00  0.00000E+00    0.12531E+03  0.85047E+02 -0.21036E+03  0.65977E+01  0.66466E+01  0.10652E+03      982.00
  0.29896E+00  0.37822E+03    0.16250E+00  0.16250E+00 -0.32500E+00  0.00000E+00  0.00000E+00  0.00000E+00    0.12917E+03  0.87154E+02 -0.21632E+03  0.65396E+01  0.62707E+01  0.10984E+03      982.00
  0.32040E+00  0.38579E+03    0.17500E+00  0.17500E+00 -0.35000E+00  0.00000E+00  0.00000E+00  0.00000E+00    0.13213E+03  0.88777E+02 -0.22090E+03  0.64656E+01  0.59038E+01  0.11165E+03      982.00
  0.34188E+00  0.39110E+03    0.18750E+00  0.18750E+00 -0.37500E+00  0.00000E+00  0.00000E+00  0.00000E+00    0.13443E+03  0.90085E+02 -0.22451E+03  0.63943E+01  0.55615E+01  0.11233E+03      982.00
  0.36340E+00  0.39421E+03    0.20000E+00  0.20000E+00 -0.40000E+00  0.00000E+00  0.00000E+00  0.00000E+00    0.13607E+03  0.91153E+02 -0.22722E+03  0.63862E+01  0.52873E+01  0.11182E+03      982.00
  0.38502E+00  0.39597E+03    0.21250E+00  0.21250E+00 -0.42500E+00  0.00000E+00  0.00000E+00  0.00000E+00    0.13720E+03  0.92182E+02 -0.22938E+03  0.64005E+01  0.50374E+01  0.11059E+03      982.00
  0.40674E+00  0.39669E+03    0.22500E+00  0.22500E+00 -0.45000E+00  0.00000E+00  0.00000E+00  0.00000E+00    0.13805E+03  0.93045E+02 -0.23110E+03  0.64297E+01  0.48312E+01  0.10876E+03      982.00
  0.42859E+00  0.39660E+03    0.23750E+00  0.23750E+00 -0.47500E+00  0.00000E+00  0.00000E+00  0.00000E+00    0.13865E+03  0.93831E+02 -0.23248E+03  0.64903E+01  0.46753E+01  0.10643E+03      982.00
  0.45057E+00  0.39347E+03    0.25000E+00  0.25000E+00 -0.50000E+00  0.00000E+00  0.00000E+00  0.00000E+00    0.13800E+03  0.94198E+02 -0.23220E+03  0.64844E+01  0.45604E+01  0.10309E+03      982.00
  0.47270E+00  0.39017E+03    0.26250E+00  0.26250E+00 -0.52500E+00  0.00000E+00  0.00000E+00  0.00000E+00    0.13741E+03  0.94449E+02 -0.23186E+03  0.65378E+01  0.45197E+01  0.99500E+02      982.00
  0.49499E+00  0.38721E+03    0.27500E+00  0.27500E+00 -0.55000E+00  0.00000E+00  0.00000E+00  0.00000E+00    0.13694E+03  0.94725E+02 -0.23166E+03  0.66041E+01  0.45044E+01  0.96012E+02      982.00
  0.51742E+00  0.38440E+03    0.28750E+00  0.28750E+00 -0.57500E+00  0.00000E+00  0.00000E+00  0.00000E+00    0.13653E+03  0.94989E+02 -0.23152E+03  0.67150E+01  0.45417E+01  0.92491E+02      982.00
  0.54001E+00  0.38187E+03    0.30000E+00  0.30000E+00 -0.60000E+00  0.00000E+00  0.00000E+00  0.00000E+00    0.13622E+03  0.95283E+02 -0.23151E+03  0.68336E+01  0.46034E+01  0.89026E+02      982.00
  0.56274E+00  0.37959E+03    0.31250E+00  0.31250E+00 -0.62500E+00  0.00000E+00  0.00000E+00  0.00000E+00    0.13601E+03  0.95584E+02 -0.23159E+03  0.69723E+01  0.46998E+01  0.85591E+02      982.00
  0.58562E+00  0.37758E+03    0.32500E+00  0.32500E+00 -0.65000E+00  0.00000E+00  0.00000E+00  0.00000E+00    0.13589E+03  0.95886E+02 -0.23178E+03  0.71266E+01  0.48282E+01  0.82198E+02      982.00
  0.60864E+00  0.37583E+03    0.33750E+00  0.33750E+00 -0.67500E+00  0.00000E+00  0.00000E+00  0.00000E+00    0.13589E+03  0.96184E+02 -0.23207E+03  0.72916E+01  0.49855E+01  0.78855E+02      982.00
  0.63180E+00  0.37437E+03    0.35000E+00  0.35000E+00 -0.70000E+00  0.00000E+00  0.00000E+00  0.00000E+00    0.13600E+03  0.96484E+02 -0.23249E+03  0.74932E+01  0.51962E+01  0.75533E+02      982.00
  0.65508E+00  0.37313E+03    0.36250E+00  0.36250E+00 -0.72500E+00  0.00000E+00  0.00000E+00  0.00000E+00    0.13625E+03  0.96713E+02 -0.23296E+03  0.76408E+01  0.53811E+01  0.72298E+02      982.00
  0.67850E+00  0.37224E+03    0.37500E+00  0.37500E+00 -0.75000E+00  0.00000E+00  0.00000E+00  0.00000E+00    0.13662E+03  0.96960E+02 -0.23358E+03  0.78054E+01  0.56016E+01  0.69155E+02      982.00
  0.70203E+00  0.37162E+03    0.38750E+00  0.38750E+00 -0.77500E+00  0.00000E+00  0.00000E+00  0.00000E+00    0.13711E+03  0.97185E+02 -0.23430E+03  0.79606E+01  0.58341E+01  0.66086E+02      982.00
  0.72567E+00  0.37126E+03    0.40000E+00  0.40000E+00 -0.80000E+00  0.00000E+00  0.00000E+00  0.00000E+00    0.13771E+03  0.97395E+02 -0.23510E+03  0.81015E+01  0.60719E+01  0.63096E+02      982.00
  0.74942E+00  0.37121E+03    0.41250E+00  0.41250E+00 -0.82500E+00  0.00000E+00  0.00000E+00  0.00000E+00    0.13834E+03  0.97677E+02 -0.23602E+03  0.82243E+01  0.62974E+01  0.60260E+02      982.00
  0.77326E+00  0.37130E+03    0.42500E+00  0.42500E+00 -0.85000E+00  0.00000E+00  0.00000E+00  0.00000E+00    0.13908E+03  0.97896E+02 -0.23698E+03  0.83267E+01  0.65240E+01  0.57440E+02      982.00
  0.79719E+00  0.37164E+03    0.43750E+00  0.43750E+00 -0.87500E+00  0.00000E+00  0.00000E+00  0.00000E+00    0.13985E+03  0.98180E+02 -0.23803E+03  0.83924E+01  0.67211E+01  0.54745E+02      982.00
  0.82121E+00  0.37210E+03    0.45000E+00  0.45000E+00 -0.90000E+00  0.00000E+00  0.00000E+00  0.00000E+00    0.14061E+03  0.98479E+02 -0.23909E+03  0.84516E+01  0.69087E+01  0.52125E+02      982.00
  0.84531E+00  0.37267E+03    0.46250E+00  0.46250E+00 -0.92500E+00  0.00000E+00  0.00000E+00  0.00000E+00    0.14139E+03  0.98779E+02 -0.24017E+03  0.84905E+01  0.70755E+01  0.49570E+02      982.00
  0.86947E+00  0.37346E+03    0.47500E+00  0.47500E+00 -0.95000E+00  0.00000E+00  0.00000E+00  0.00000E+00    0.14207E+03  0.99257E+02 -0.24132E+03  0.85012E+01  0.71974E+01  0.47225E+02      982.00
  0.89371E+00  0.37429E+03    0.48750E+00  0.48750E+00 -0.97500E+00  0.00000E+00  0.00000E+00  0.00000E+00    0.14274E+03  0.99732E+02 -0.24247E+03  0.85142E+01  0.73108E+01  0.44892E+02      982.00
  0.91800E+00  0.37531E+03    0.50000E+00  0.50000E+00 -0.10000E+01  0.00000E+00  0.00000E+00  0.00000E+00    0.14331E+03  0.10038E+03 -0.24369E+03  0.85101E+01  0.73891E+01  0.42728E+02      982.00
