          Evm          Svm            E11          E22          E33          E23          E13          E12         SDEV11       SDEV22       SDEV33       SDEV23       SDEV13       SDEV12      TEMP
  0.00000E+00  0.15906E+03    0.00000E+00  0.00000E+00  0.00000E+00  0.00000E+00  0.00000E+00  0.00000E+00    0.45071E+02  0.58224E+02 -0.10330E+03 -0.99865E+01 -0.77393E+01  0.15102E+02      982.00
  0.24353E-01  0.15818E+03    0.12500E-01  0.12500E-01 -0.25000E-01  0.00000E+00  0.00000E+00  0.00000E+00    0.45273E+02  0.57278E+02 -0.10255E+03 -0.92348E+01 -0.69041E+01  0.16848E+02      982.00
  0.48665E-01  0.16399E+03    0.25000E-01  0.25000E-01 -0.50000E-01  0.00000E+00  0.00000E+00  0.00000E+00    0.48326E+02  0.57447E+02 -0.10577E+03 -0.89531E+01 -0.69403E+01  0.20588E+02      982.00
  0.72853E-01  0.17911E+03    0.37500E-01  0.37500E-01 -0.75000E-01  0.00000E+00  0.00000E+00  0.00000E+00    0.55764E+02  0.58522E+02 -0.11429E+03 -0.90219E+01 -0.78186E+01  0.27449E+02      982.00
  0.96780E-01  0.20541E+03    0.50000E-01  0.50000E-01 -0.10000E+00  0.00000E+00  0.00000E+00  0.00000E+00    0.69520E+02  0.59121E+02 -0.12864E+03 -0.91889E+01 -0.94569E+01  0.38115E+02      982.00
  0.12026E+00  0.22397E+03    0.62500E-01  0.62500E-01 -0.12500E+00  0.00000E+00  0.00000E+00  0.00000E+00    0.81288E+02  0.57006E+02 -0.13829E+03 -0.84851E+01 -0.10540E+02  0.45244E+02      982.00
  0.14342E+00  0.23534E+03    0.75000E-01  0.75000E-01 -0.15000E+00  0.00000E+00  0.00000E+00  0.00000E+00    0.86765E+02  0.57128E+02 -0.14389E+03 -0.73477E+01 -0.10350E+02  0.50511E+02      982.00
  0.16635E+00  0.25579E+03    0.87500E-01  0.87500E-01 -0.17500E+00  0.00000E+00  0.00000E+00  0.00000E+00    0.94047E+02  0.59937E+02 -0.15398E+03 -0.66957E+01 -0.98622E+01  0.59944E+02      982.00
  0.18892E+00  0.28292E+03    0.10000E+00  0.10000E+00 -0.20000E+00  0.00000E+00  0.00000E+00  0.00000E+00    0.10350E+03  0.63782E+02 -0.16728E+03 -0.64134E+01 -0.94356E+01  0.71898E+02      982.00
  0.21110E+00  0.31035E+03    0.11250E+00  0.11250E+00 -0.22500E+00  0.00000E+00  0.00000E+00  0.00000E+00    0.11329E+03  0.67413E+02 -0.18070E+03 -0.62428E+01 -0.90099E+01  0.83478E+02      982.00
  0.23293E+00  0.33369E+03    0.12500E+00  0.12500E+00 -0.25000E+00  0.00000E+00  0.00000E+00  0.00000E+00    0.12199E+03  0.70239E+02 -0.19223E+03 -0.60647E+01 -0.85377E+01  0.92851E+02      982.00
  0.25453E+00  0.35195E+03    0.13750E+00  0.13750E+00 -0.27500E+00  0.00000E+00  0.00000E+00  0.00000E+00    0.12921E+03  0.72252E+02 -0.20146E+03 -0.58579E+01 -0.80451E+01  0.99693E+02      982.00
  0.27600E+00  0.36551E+03    0.15000E+00  0.15000E+00 -0.30000E+00  0.00000E+00  0.00000E+00  0.00000E+00    0.13493E+03  0.73674E+02 -0.20861E+03 -0.56440E+01 -0.75589E+01  0.10425E+03      982.00
  0.29740E+00  0.37524E+03    0.16250E+00  0.16250E+00 -0.32500E+00  0.00000E+00  0.00000E+00  0.00000E+00    0.13938E+03  0.74696E+02 -0.21408E+03 -0.54381E+01 -0.70999E+01  0.10694E+03      982.00
  0.31880E+00  0.38198E+03    0.17500E+00  0.17500E+00 -0.35000E+00  0.00000E+00  0.00000E+00  0.00000E+00    0.14277E+03  0.75505E+02 -0.21828E+03 -0.52545E+01 -0.66745E+01  0.10816E+03      982.00
  0.34022E+00  0.38643E+03    0.18750E+00  0.18750E+00 -0.37500E+00  0.00000E+00  0.00000E+00  0.00000E+00    0.14530E+03  0.76208E+02 -0.22151E+03 -0.50997E+01 -0.62887E+01  0.10825E+03      982.00
  0.36172E+00  0.38905E+03    0.20000E+00  0.20000E+00 -0.40000E+00  0.00000E+00  0.00000E+00  0.00000E+00    0.14712E+03  0.76867E+02 -0.22399E+03 -0.49829E+01 -0.59510E+01  0.10738E+03      982.00
  0.38331E+00  0.39024E+03    0.21250E+00  0.21250E+00 -0.42500E+00  0.00000E+00  0.00000E+00  0.00000E+00    0.14832E+03  0.77585E+02 -0.22590E+03 -0.49173E+01 -0.56676E+01  0.10574E+03      982.00
  0.40502E+00  0.39046E+03    0.22500E+00  0.22500E+00 -0.45000E+00  0.00000E+00  0.00000E+00  0.00000E+00    0.14902E+03  0.78414E+02 -0.22743E+03 -0.48994E+01 -0.54383E+01  0.10357E+03      982.00
  0.42686E+00  0.38994E+03    0.23750E+00  0.23750E+00 -0.47500E+00  0.00000E+00  0.00000E+00  0.00000E+00    0.14937E+03  0.79305E+02 -0.22868E+03 -0.49285E+01 -0.52719E+01  0.10092E+03      982.00
  0.44885E+00  0.38632E+03    0.25000E+00  0.25000E+00 -0.50000E+00  0.00000E+00  0.00000E+00  0.00000E+00    0.14813E+03  0.80122E+02 -0.22825E+03 -0.49317E+01 -0.51590E+01  0.97294E+02      982.00
  0.47101E+00  0.38288E+03    0.26250E+00  0.26250E+00 -0.52500E+00  0.00000E+00  0.00000E+00  0.00000E+00    0.14704E+03  0.80849E+02 -0.22789E+03 -0.49725E+01 -0.50999E+01  0.93632E+02      982.00
  0.49333E+00  0.37957E+03    0.27500E+00  0.27500E+00 -0.55000E+00  0.00000E+00  0.00000E+00  0.00000E+00    0.14598E+03  0.81614E+02 -0.22759E+03 -0.50586E+01 -0.50904E+01  0.89939E+02      982.00
  0.51581E+00  0.37661E+03    0.28750E+00  0.28750E+00 -0.57500E+00  0.00000E+00  0.00000E+00  0.00000E+00    0.14498E+03  0.82448E+02 -0.22743E+03 -0.51678E+01 -0.51105E+01  0.86346E+02      982.00
  0.53846E+00  0.37391E+03    0.30000E+00  0.30000E+00 -0.60000E+00  0.00000E+00  0.00000E+00  0.00000E+00    0.14403E+03  0.83333E+02 -0.22736E+03 -0.53034E+01 -0.51632E+01  0.82811E+02      982.00
  0.56126E+00  0.37150E+03    0.31250E+00  0.31250E+00 -0.62500E+00  0.00000E+00  0.00000E+00  0.00000E+00    0.14314E+03  0.84265E+02 -0.22740E+03 -0.54600E+01 -0.52440E+01  0.79346E+02      982.00
  0.58422E+00  0.36937E+03    0.32500E+00  0.32500E+00 -0.65000E+00  0.00000E+00  0.00000E+00  0.00000E+00    0.14231E+03  0.85241E+02 -0.22755E+03 -0.56325E+01 -0.53476E+01  0.75964E+02      982.00
  0.60732E+00  0.36750E+03    0.33750E+00  0.33750E+00 -0.67500E+00  0.00000E+00  0.00000E+00  0.00000E+00    0.14151E+03  0.86281E+02 -0.22779E+03 -0.58454E+01 -0.54903E+01  0.72635E+02      982.00
  0.63056E+00  0.36599E+03    0.35000E+00  0.35000E+00 -0.70000E+00  0.00000E+00  0.00000E+00  0.00000E+00    0.14083E+03  0.87334E+02 -0.22816E+03 -0.60090E+01 -0.56061E+01  0.69461E+02      982.00
  0.65394E+00  0.36477E+03    0.36250E+00  0.36250E+00 -0.72500E+00  0.00000E+00  0.00000E+00  0.00000E+00    0.14021E+03  0.88415E+02 -0.22863E+03 -0.61994E+01 -0.57484E+01  0.66383E+02      982.00
  0.67744E+00  0.36368E+03    0.37500E+00  0.37500E+00 -0.75000E+00  0.00000E+00  0.00000E+00  0.00000E+00    0.13960E+03  0.89522E+02 -0.22912E+03 -0.64077E+01 -0.59120E+01  0.63341E+02      982.00
  0.70107E+00  0.36304E+03    0.38750E+00  0.38750E+00 -0.77500E+00  0.00000E+00  0.00000E+00  0.00000E+00    0.13914E+03  0.90659E+02 -0.22980E+03 -0.65877E+01 -0.60567E+01  0.60497E+02      982.00
  0.72481E+00  0.36271E+03    0.40000E+00  0.40000E+00 -0.80000E+00  0.00000E+00  0.00000E+00  0.00000E+00    0.13876E+03  0.91828E+02 -0.23059E+03 -0.67789E+01 -0.62127E+01  0.57785E+02      982.00
  0.74865E+00  0.36258E+03    0.41250E+00  0.41250E+00 -0.82500E+00  0.00000E+00  0.00000E+00  0.00000E+00    0.13844E+03  0.93001E+02 -0.23144E+03 -0.69394E+01 -0.63496E+01  0.55170E+02      982.00
  0.77258E+00  0.36254E+03    0.42500E+00  0.42500E+00 -0.85000E+00  0.00000E+00  0.00000E+00  0.00000E+00    0.13811E+03  0.94178E+02 -0.23229E+03 -0.70816E+01 -0.64764E+01  0.52612E+02      982.00
  0.79661E+00  0.36288E+03    0.43750E+00  0.43750E+00 -0.87500E+00  0.00000E+00  0.00000E+00  0.00000E+00    0.13792E+03  0.95381E+02 -0.23330E+03 -0.72180E+01 -0.65978E+01  0.50234E+02      982.00
  0.82072E+00  0.36343E+03    0.45000E+00  0.45000E+00 -0.90000E+00  0.00000E+00  0.00000E+00  0.00000E+00    0.13780E+03  0.96592E+02 -0.23439E+03 -0.73418E+01 -0.67105E+01  0.47964E+02      982.00
  0.84491E+00  0.36417E+03    0.46250E+00  0.46250E+00 -0.92500E+00  0.00000E+00  0.00000E+00  0.00000E+00    0.13773E+03  0.97811E+02 -0.23554E+03 -0.74524E+01 -0.68135E+01  0.45800E+02      982.00
  0.86916E+00  0.36509E+03    0.47500E+00  0.47500E+00 -0.95000E+00  0.00000E+00  0.00000E+00  0.00000E+00    0.13771E+03  0.99034E+02 -0.23675E+03 -0.75496E+01 -0.69064E+01  0.43740E+02      982.00
  0.89348E+00  0.36616E+03    0.48750E+00  0.48750E+00 -0.97500E+00  0.00000E+00  0.00000E+00  0.00000E+00    0.13775E+03  0.10026E+03 -0.23801E+03 -0.76339E+01 -0.69892E+01  0.41778E+02      982.00
  0.91785E+00  0.36730E+03    0.50000E+00  0.50000E+00 -0.10000E+01  0.00000E+00  0.00000E+00  0.00000E+00    0.13779E+03  0.10149E+03 -0.23928E+03 -0.77543E+01 -0.70945E+01  0.39860E+02      982.00
