          Evm          Svm            E11          E22          E33          E23          E13          E12         SDEV11       SDEV22       SDEV33       SDEV23       SDEV13       SDEV12      TEMP
  0.00000E+00  0.14363E+03    0.00000E+00  0.00000E+00  0.00000E+00  0.00000E+00  0.00000E+00  0.00000E+00    0.40104E+02  0.52410E+02 -0.92514E+02 -0.95973E+01 -0.62249E+01  0.17005E+02      982.00
  0.24153E-01  0.15048E+03    0.12500E-01  0.12500E-01 -0.25000E-01  0.00000E+00  0.00000E+00  0.00000E+00    0.44011E+02  0.52088E+02 -0.96100E+02 -0.99298E+01 -0.59454E+01  0.21702E+02      982.00
  0.48102E-01  0.16967E+03    0.25000E-01  0.25000E-01 -0.50000E-01  0.00000E+00  0.00000E+00  0.00000E+00    0.54045E+02  0.51662E+02 -0.10571E+03 -0.10773E+02 -0.57482E+01  0.32627E+02      982.00
  0.71466E-01  0.18662E+03    0.37500E-01  0.37500E-01 -0.75000E-01  0.00000E+00  0.00000E+00  0.00000E+00    0.63448E+02  0.49739E+02 -0.11319E+03 -0.10930E+02 -0.41243E+01  0.42623E+02      982.00
  0.94211E-01  0.19481E+03    0.50000E-01  0.50000E-01 -0.10000E+00  0.00000E+00  0.00000E+00  0.00000E+00    0.66899E+02  0.49447E+02 -0.11635E+03 -0.10706E+02 -0.34302E+01  0.47915E+02      982.00
  0.11661E+00  0.20710E+03    0.62500E-01  0.62500E-01 -0.12500E+00  0.00000E+00  0.00000E+00  0.00000E+00    0.70535E+02  0.50774E+02 -0.12131E+03 -0.10685E+02 -0.39242E+01  0.55070E+02      982.00
  0.13857E+00  0.22662E+03    0.75000E-01  0.75000E-01 -0.15000E+00  0.00000E+00  0.00000E+00  0.00000E+00    0.75916E+02  0.53465E+02 -0.12938E+03 -0.10983E+02 -0.51347E+01  0.65505E+02      982.00
  0.15998E+00  0.25517E+03    0.87500E-01  0.87500E-01 -0.17500E+00  0.00000E+00  0.00000E+00  0.00000E+00    0.83687E+02  0.57412E+02 -0.14110E+03 -0.11619E+02 -0.67138E+01  0.80121E+02      982.00
  0.18072E+00  0.29241E+03    0.10000E+00  0.10000E+00 -0.20000E+00  0.00000E+00  0.00000E+00  0.00000E+00    0.93611E+02  0.62578E+02 -0.15619E+03 -0.12526E+02 -0.85173E+01  0.98666E+02      982.00
  0.20075E+00  0.33456E+03    0.11250E+00  0.11250E+00 -0.22500E+00  0.00000E+00  0.00000E+00  0.00000E+00    0.10460E+03  0.68415E+02 -0.17301E+03 -0.13511E+02 -0.10273E+02  0.11935E+03      982.00
  0.22014E+00  0.37488E+03    0.12500E+00  0.12500E+00 -0.25000E+00  0.00000E+00  0.00000E+00  0.00000E+00    0.11487E+03  0.74135E+02 -0.18901E+03 -0.14312E+02 -0.11765E+02  0.13890E+03      982.00
  0.23905E+00  0.40886E+03    0.13750E+00  0.13750E+00 -0.27500E+00  0.00000E+00  0.00000E+00  0.00000E+00    0.12336E+03  0.79087E+02 -0.20245E+03 -0.14826E+02 -0.12869E+02  0.15527E+03      982.00
  0.25762E+00  0.43580E+03    0.15000E+00  0.15000E+00 -0.30000E+00  0.00000E+00  0.00000E+00  0.00000E+00    0.12999E+03  0.83093E+02 -0.21308E+03 -0.15087E+02 -0.13625E+02  0.16820E+03      982.00
  0.27595E+00  0.45713E+03    0.16250E+00  0.16250E+00 -0.32500E+00  0.00000E+00  0.00000E+00  0.00000E+00    0.13520E+03  0.86260E+02 -0.22146E+03 -0.15179E+02 -0.14123E+02  0.17845E+03      982.00
  0.29412E+00  0.47404E+03    0.17500E+00  0.17500E+00 -0.35000E+00  0.00000E+00  0.00000E+00  0.00000E+00    0.13928E+03  0.88724E+02 -0.22801E+03 -0.15169E+02 -0.14420E+02  0.18665E+03      982.00
  0.31215E+00  0.48741E+03    0.18750E+00  0.18750E+00 -0.37500E+00  0.00000E+00  0.00000E+00  0.00000E+00    0.14247E+03  0.90623E+02 -0.23310E+03 -0.15084E+02 -0.14586E+02  0.19320E+03      982.00
  0.33009E+00  0.49855E+03    0.20000E+00  0.20000E+00 -0.40000E+00  0.00000E+00  0.00000E+00  0.00000E+00    0.14511E+03  0.92097E+02 -0.23721E+03 -0.14959E+02 -0.14649E+02  0.19876E+03      982.00
  0.34793E+00  0.50788E+03    0.21250E+00  0.21250E+00 -0.42500E+00  0.00000E+00  0.00000E+00  0.00000E+00    0.14730E+03  0.93227E+02 -0.24053E+03 -0.14804E+02 -0.14642E+02  0.20353E+03      982.00
  0.36569E+00  0.51547E+03    0.22500E+00  0.22500E+00 -0.45000E+00  0.00000E+00  0.00000E+00  0.00000E+00    0.14905E+03  0.94059E+02 -0.24310E+03 -0.14623E+02 -0.14591E+02  0.20751E+03      982.00
  0.38338E+00  0.52246E+03    0.23750E+00  0.23750E+00 -0.47500E+00  0.00000E+00  0.00000E+00  0.00000E+00    0.15067E+03  0.94684E+02 -0.24535E+03 -0.14425E+02 -0.14500E+02  0.21128E+03      982.00
  0.40099E+00  0.52825E+03    0.25000E+00  0.25000E+00 -0.50000E+00  0.00000E+00  0.00000E+00  0.00000E+00    0.15196E+03  0.95108E+02 -0.24706E+03 -0.14212E+02 -0.14381E+02  0.21452E+03      982.00
  0.41853E+00  0.52958E+03    0.26250E+00  0.26250E+00 -0.52500E+00  0.00000E+00  0.00000E+00  0.00000E+00    0.15227E+03  0.94651E+02 -0.24692E+03 -0.13942E+02 -0.14127E+02  0.21572E+03      982.00
  0.43601E+00  0.53095E+03    0.27500E+00  0.27500E+00 -0.55000E+00  0.00000E+00  0.00000E+00  0.00000E+00    0.15255E+03  0.94214E+02 -0.24677E+03 -0.13656E+02 -0.13872E+02  0.21695E+03      982.00
  0.45344E+00  0.53231E+03    0.28750E+00  0.28750E+00 -0.57500E+00  0.00000E+00  0.00000E+00  0.00000E+00    0.15286E+03  0.93753E+02 -0.24661E+03 -0.13357E+02 -0.13631E+02  0.21818E+03      982.00
  0.47081E+00  0.53367E+03    0.30000E+00  0.30000E+00 -0.60000E+00  0.00000E+00  0.00000E+00  0.00000E+00    0.15319E+03  0.93252E+02 -0.24645E+03 -0.13040E+02 -0.13407E+02  0.21940E+03      982.00
  0.48813E+00  0.53501E+03    0.31250E+00  0.31250E+00 -0.62500E+00  0.00000E+00  0.00000E+00  0.00000E+00    0.15357E+03  0.92705E+02 -0.24628E+03 -0.12703E+02 -0.13197E+02  0.22059E+03      982.00
  0.50539E+00  0.53633E+03    0.32500E+00  0.32500E+00 -0.65000E+00  0.00000E+00  0.00000E+00  0.00000E+00    0.15400E+03  0.92112E+02 -0.24611E+03 -0.12341E+02 -0.13003E+02  0.22175E+03      982.00
  0.52260E+00  0.53762E+03    0.33750E+00  0.33750E+00 -0.67500E+00  0.00000E+00  0.00000E+00  0.00000E+00    0.15447E+03  0.91477E+02 -0.24595E+03 -0.11953E+02 -0.12823E+02  0.22288E+03      982.00
  0.53975E+00  0.53887E+03    0.35000E+00  0.35000E+00 -0.70000E+00  0.00000E+00  0.00000E+00  0.00000E+00    0.15498E+03  0.90810E+02 -0.24579E+03 -0.11539E+02 -0.12656E+02  0.22396E+03      982.00
  0.55686E+00  0.54008E+03    0.36250E+00  0.36250E+00 -0.72500E+00  0.00000E+00  0.00000E+00  0.00000E+00    0.15552E+03  0.90125E+02 -0.24565E+03 -0.11102E+02 -0.12499E+02  0.22500E+03      982.00
  0.57392E+00  0.54125E+03    0.37500E+00  0.37500E+00 -0.75000E+00  0.00000E+00  0.00000E+00  0.00000E+00    0.15606E+03  0.89450E+02 -0.24551E+03 -0.10646E+02 -0.12350E+02  0.22598E+03      982.00
  0.59093E+00  0.54236E+03    0.38750E+00  0.38750E+00 -0.77500E+00  0.00000E+00  0.00000E+00  0.00000E+00    0.15661E+03  0.88789E+02 -0.24540E+03 -0.10177E+02 -0.12203E+02  0.22690E+03      982.00
  0.60789E+00  0.54340E+03    0.40000E+00  0.40000E+00 -0.80000E+00  0.00000E+00  0.00000E+00  0.00000E+00    0.15713E+03  0.88163E+02 -0.24529E+03 -0.97021E+01 -0.12055E+02  0.22776E+03      982.00
  0.62482E+00  0.54439E+03    0.41250E+00  0.41250E+00 -0.82500E+00  0.00000E+00  0.00000E+00  0.00000E+00    0.15762E+03  0.87587E+02 -0.24521E+03 -0.92294E+01 -0.11901E+02  0.22856E+03      982.00
  0.64171E+00  0.54531E+03    0.42500E+00  0.42500E+00 -0.85000E+00  0.00000E+00  0.00000E+00  0.00000E+00    0.15807E+03  0.87069E+02 -0.24514E+03 -0.87668E+01 -0.11737E+02  0.22929E+03      982.00
  0.65857E+00  0.54631E+03    0.43750E+00  0.43750E+00 -0.87500E+00  0.00000E+00  0.00000E+00  0.00000E+00    0.15862E+03  0.86511E+02 -0.24513E+03 -0.83172E+01 -0.11554E+02  0.23003E+03      982.00
  0.67540E+00  0.54706E+03    0.45000E+00  0.45000E+00 -0.90000E+00  0.00000E+00  0.00000E+00  0.00000E+00    0.15896E+03  0.86119E+02 -0.24508E+03 -0.78938E+01 -0.11364E+02  0.23064E+03      982.00
  0.69220E+00  0.54776E+03    0.46250E+00  0.46250E+00 -0.92500E+00  0.00000E+00  0.00000E+00  0.00000E+00    0.15924E+03  0.85792E+02 -0.24503E+03 -0.74981E+01 -0.11159E+02  0.23120E+03      982.00
  0.70897E+00  0.54853E+03    0.47500E+00  0.47500E+00 -0.95000E+00  0.00000E+00  0.00000E+00  0.00000E+00    0.15966E+03  0.85387E+02 -0.24504E+03 -0.71182E+01 -0.10926E+02  0.23176E+03      982.00
  0.72572E+00  0.54909E+03    0.48750E+00  0.48750E+00 -0.97500E+00  0.00000E+00  0.00000E+00  0.00000E+00    0.15983E+03  0.85170E+02 -0.24500E+03 -0.67847E+01 -0.10694E+02  0.23222E+03      982.00
  0.74246E+00  0.54973E+03    0.50000E+00  0.50000E+00 -0.10000E+01  0.00000E+00  0.00000E+00  0.00000E+00    0.16015E+03  0.84858E+02 -0.24501E+03 -0.64439E+01 -0.10403E+02  0.23269E+03      982.00
