          Evm          Svm            E11          E22          E33          E23          E13          E12         SDEV11       SDEV22       SDEV33       SDEV23       SDEV13       SDEV12      TEMP
  0.00000E+00  0.17496E+03    0.00000E+00  0.00000E+00  0.00000E+00  0.00000E+00  0.00000E+00  0.00000E+00    0.52381E+02  0.53269E+02 -0.10565E+03 -0.15252E+01 -0.33801E+01  0.42643E+02      982.00
  0.22644E-01  0.17444E+03    0.12500E-01  0.12500E-01 -0.25000E-01  0.00000E+00  0.00000E+00  0.00000E+00    0.51183E+02  0.53778E+02 -0.10496E+03 -0.56811E+00 -0.36713E+01  0.43181E+02      982.00
  0.45209E-01  0.17575E+03    0.25000E-01  0.25000E-01 -0.50000E-01  0.00000E+00  0.00000E+00  0.00000E+00    0.50859E+02  0.54194E+02 -0.10505E+03 -0.31718E-01 -0.39085E+01  0.44726E+02      982.00
  0.67624E-01  0.18007E+03    0.37500E-01  0.37500E-01 -0.75000E-01  0.00000E+00  0.00000E+00  0.00000E+00    0.51291E+02  0.55120E+02 -0.10641E+03  0.18187E+00 -0.40265E+01  0.47912E+02      982.00
  0.89785E-01  0.18836E+03    0.50000E-01  0.50000E-01 -0.10000E+00  0.00000E+00  0.00000E+00  0.00000E+00    0.52541E+02  0.56862E+02 -0.10940E+03  0.10927E+00 -0.40441E+01  0.53189E+02      982.00
  0.11157E+00  0.20191E+03    0.62500E-01  0.62500E-01 -0.12500E+00  0.00000E+00  0.00000E+00  0.00000E+00    0.54758E+02  0.59705E+02 -0.11446E+03 -0.18497E+00 -0.40228E+01  0.61164E+02      982.00
  0.13282E+00  0.22214E+03    0.75000E-01  0.75000E-01 -0.15000E+00  0.00000E+00  0.00000E+00  0.00000E+00    0.58117E+02  0.63924E+02 -0.12204E+03 -0.64227E+00 -0.40206E+01  0.72477E+02      982.00
  0.15343E+00  0.25090E+03    0.87500E-01  0.87500E-01 -0.17500E+00  0.00000E+00  0.00000E+00  0.00000E+00    0.62851E+02  0.69850E+02 -0.13270E+03 -0.12085E+01 -0.41056E+01  0.88013E+02      982.00
  0.17326E+00  0.28904E+03    0.10000E+00  0.10000E+00 -0.20000E+00  0.00000E+00  0.00000E+00  0.00000E+00    0.69034E+02  0.77593E+02 -0.14663E+03 -0.18600E+01 -0.42954E+01  0.10809E+03      982.00
  0.19228E+00  0.33454E+03    0.11250E+00  0.11250E+00 -0.22500E+00  0.00000E+00  0.00000E+00  0.00000E+00    0.76314E+02  0.86708E+02 -0.16302E+03 -0.25538E+01 -0.45704E+01  0.13161E+03      982.00
  0.21056E+00  0.38078E+03    0.12500E+00  0.12500E+00 -0.25000E+00  0.00000E+00  0.00000E+00  0.00000E+00    0.83675E+02  0.95875E+02 -0.17955E+03 -0.32258E+01 -0.48433E+01  0.15518E+03      982.00
  0.22824E+00  0.42108E+03    0.13750E+00  0.13750E+00 -0.27500E+00  0.00000E+00  0.00000E+00  0.00000E+00    0.90135E+02  0.10380E+03 -0.19394E+03 -0.38089E+01 -0.50433E+01  0.17552E+03      982.00
  0.24551E+00  0.45328E+03    0.15000E+00  0.15000E+00 -0.30000E+00  0.00000E+00  0.00000E+00  0.00000E+00    0.95386E+02  0.11008E+03 -0.20547E+03 -0.42698E+01 -0.51643E+01  0.19164E+03      982.00
  0.26251E+00  0.47826E+03    0.16250E+00  0.16250E+00 -0.32500E+00  0.00000E+00  0.00000E+00  0.00000E+00    0.99535E+02  0.11487E+03 -0.21440E+03 -0.45751E+01 -0.52531E+01  0.20411E+03      982.00
  0.27932E+00  0.49739E+03    0.17500E+00  0.17500E+00 -0.35000E+00  0.00000E+00  0.00000E+00  0.00000E+00    0.10288E+03  0.11845E+03 -0.22133E+03 -0.48149E+01 -0.52809E+01  0.21358E+03      982.00
  0.29601E+00  0.51251E+03    0.18750E+00  0.18750E+00 -0.37500E+00  0.00000E+00  0.00000E+00  0.00000E+00    0.10560E+03  0.12121E+03 -0.22680E+03 -0.49247E+01 -0.53257E+01  0.22105E+03      982.00
  0.31260E+00  0.52413E+03    0.20000E+00  0.20000E+00 -0.40000E+00  0.00000E+00  0.00000E+00  0.00000E+00    0.10782E+03  0.12327E+03 -0.23110E+03 -0.50208E+01 -0.53007E+01  0.22673E+03      982.00
  0.32914E+00  0.53338E+03    0.21250E+00  0.21250E+00 -0.42500E+00  0.00000E+00  0.00000E+00  0.00000E+00    0.10966E+03  0.12488E+03 -0.23454E+03 -0.50386E+01 -0.52818E+01  0.23122E+03      982.00
  0.34563E+00  0.54079E+03    0.22500E+00  0.22500E+00 -0.45000E+00  0.00000E+00  0.00000E+00  0.00000E+00    0.11118E+03  0.12614E+03 -0.23732E+03 -0.49935E+01 -0.52702E+01  0.23481E+03      982.00
  0.36208E+00  0.54683E+03    0.23750E+00  0.23750E+00 -0.47500E+00  0.00000E+00  0.00000E+00  0.00000E+00    0.11246E+03  0.12715E+03 -0.23960E+03 -0.49023E+01 -0.52640E+01  0.23773E+03      982.00
  0.37851E+00  0.55207E+03    0.25000E+00  0.25000E+00 -0.50000E+00  0.00000E+00  0.00000E+00  0.00000E+00    0.11359E+03  0.12801E+03 -0.24159E+03 -0.47787E+01 -0.52612E+01  0.24024E+03      982.00
  0.39492E+00  0.55639E+03    0.26250E+00  0.26250E+00 -0.52500E+00  0.00000E+00  0.00000E+00  0.00000E+00    0.11456E+03  0.12870E+03 -0.24326E+03 -0.46360E+01 -0.52587E+01  0.24230E+03      982.00
  0.41132E+00  0.56013E+03    0.27500E+00  0.27500E+00 -0.55000E+00  0.00000E+00  0.00000E+00  0.00000E+00    0.11537E+03  0.12938E+03 -0.24475E+03 -0.45081E+01 -0.52172E+01  0.24404E+03      982.00
  0.42770E+00  0.55939E+03    0.28750E+00  0.28750E+00 -0.57500E+00  0.00000E+00  0.00000E+00  0.00000E+00    0.11531E+03  0.12925E+03 -0.24456E+03 -0.43048E+01 -0.51633E+01  0.24363E+03      982.00
  0.44410E+00  0.55908E+03    0.30000E+00  0.30000E+00 -0.60000E+00  0.00000E+00  0.00000E+00  0.00000E+00    0.11524E+03  0.12927E+03 -0.24450E+03 -0.40958E+01 -0.51021E+01  0.24344E+03      982.00
  0.46050E+00  0.55875E+03    0.31250E+00  0.31250E+00 -0.62500E+00  0.00000E+00  0.00000E+00  0.00000E+00    0.11512E+03  0.12934E+03 -0.24445E+03 -0.38993E+01 -0.50204E+01  0.24323E+03      982.00
  0.47691E+00  0.55855E+03    0.32500E+00  0.32500E+00 -0.65000E+00  0.00000E+00  0.00000E+00  0.00000E+00    0.11504E+03  0.12941E+03 -0.24445E+03 -0.37408E+01 -0.49336E+01  0.24307E+03      982.00
  0.49332E+00  0.55838E+03    0.33750E+00  0.33750E+00 -0.67500E+00  0.00000E+00  0.00000E+00  0.00000E+00    0.11495E+03  0.12951E+03 -0.24446E+03 -0.36009E+01 -0.48352E+01  0.24294E+03      982.00
  0.50973E+00  0.55823E+03    0.35000E+00  0.35000E+00 -0.70000E+00  0.00000E+00  0.00000E+00  0.00000E+00    0.11485E+03  0.12962E+03 -0.24447E+03 -0.34775E+01 -0.47273E+01  0.24282E+03      982.00
  0.52616E+00  0.55810E+03    0.36250E+00  0.36250E+00 -0.72500E+00  0.00000E+00  0.00000E+00  0.00000E+00    0.11477E+03  0.12969E+03 -0.24446E+03 -0.33853E+01 -0.46364E+01  0.24272E+03      982.00
  0.54258E+00  0.55796E+03    0.37500E+00  0.37500E+00 -0.75000E+00  0.00000E+00  0.00000E+00  0.00000E+00    0.11465E+03  0.12982E+03 -0.24447E+03 -0.32805E+01 -0.45170E+01  0.24261E+03      982.00
  0.55901E+00  0.55783E+03    0.38750E+00  0.38750E+00 -0.77500E+00  0.00000E+00  0.00000E+00  0.00000E+00    0.11453E+03  0.12994E+03 -0.24448E+03 -0.31873E+01 -0.43936E+01  0.24250E+03      982.00
  0.57545E+00  0.55770E+03    0.40000E+00  0.40000E+00 -0.80000E+00  0.00000E+00  0.00000E+00  0.00000E+00    0.11441E+03  0.13007E+03 -0.24448E+03 -0.31034E+01 -0.42680E+01  0.24240E+03      982.00
  0.59189E+00  0.55757E+03    0.41250E+00  0.41250E+00 -0.82500E+00  0.00000E+00  0.00000E+00  0.00000E+00    0.11429E+03  0.13019E+03 -0.24448E+03 -0.30268E+01 -0.41416E+01  0.24230E+03      982.00
  0.60833E+00  0.55753E+03    0.42500E+00  0.42500E+00 -0.85000E+00  0.00000E+00  0.00000E+00  0.00000E+00    0.11426E+03  0.13025E+03 -0.24451E+03 -0.29699E+01 -0.40174E+01  0.24225E+03      982.00
  0.62478E+00  0.55733E+03    0.43750E+00  0.43750E+00 -0.87500E+00  0.00000E+00  0.00000E+00  0.00000E+00    0.11405E+03  0.13041E+03 -0.24447E+03 -0.28904E+01 -0.38930E+01  0.24213E+03      982.00
  0.64123E+00  0.55729E+03    0.45000E+00  0.45000E+00 -0.90000E+00  0.00000E+00  0.00000E+00  0.00000E+00    0.11401E+03  0.13048E+03 -0.24449E+03 -0.28420E+01 -0.37729E+01  0.24208E+03      982.00
  0.65768E+00  0.55710E+03    0.46250E+00  0.46250E+00 -0.92500E+00  0.00000E+00  0.00000E+00  0.00000E+00    0.11380E+03  0.13064E+03 -0.24444E+03 -0.27690E+01 -0.36510E+01  0.24196E+03      982.00
  0.67413E+00  0.55707E+03    0.47500E+00  0.47500E+00 -0.95000E+00  0.00000E+00  0.00000E+00  0.00000E+00    0.11376E+03  0.13070E+03 -0.24446E+03 -0.27251E+01 -0.35389E+01  0.24193E+03      982.00
  0.69059E+00  0.55688E+03    0.48750E+00  0.48750E+00 -0.97500E+00  0.00000E+00  0.00000E+00  0.00000E+00    0.11355E+03  0.13086E+03 -0.24441E+03 -0.26566E+01 -0.34213E+01  0.24182E+03      982.00
  0.70705E+00  0.55685E+03    0.50000E+00  0.50000E+00 -0.10000E+01  0.00000E+00  0.00000E+00  0.00000E+00    0.11351E+03  0.13092E+03 -0.24442E+03 -0.26149E+01 -0.33187E+01  0.24179E+03      982.00
