          Evm          Svm            E11          E22          E33          E23          E13          E12         SDEV11       SDEV22       SDEV33       SDEV23       SDEV13       SDEV12      TEMP
  0.00000E+00  0.18906E+03    0.00000E+00  0.00000E+00  0.00000E+00  0.00000E+00  0.00000E+00  0.00000E+00    0.48458E+02  0.71775E+02 -0.12023E+03  0.99819E+01  0.31534E+01  0.28749E+02      982.00
  0.23849E-01  0.18927E+03    0.12500E-01  0.12500E-01 -0.25000E-01  0.00000E+00  0.00000E+00  0.00000E+00    0.46029E+02  0.73751E+02 -0.11978E+03  0.79020E+01  0.23984E+01  0.30344E+02      982.00
  0.47580E-01  0.19578E+03    0.25000E-01  0.25000E-01 -0.50000E-01  0.00000E+00  0.00000E+00  0.00000E+00    0.44232E+02  0.78420E+02 -0.12265E+03  0.69528E+01  0.23498E+01  0.33879E+02      982.00
  0.71073E-01  0.20751E+03    0.37500E-01  0.37500E-01 -0.75000E-01  0.00000E+00  0.00000E+00  0.00000E+00    0.43871E+02  0.84414E+02 -0.12829E+03  0.70582E+01  0.27192E+01  0.39269E+02      982.00
  0.94257E-01  0.20302E+03    0.50000E-01  0.50000E-01 -0.10000E+00  0.00000E+00  0.00000E+00  0.00000E+00    0.41851E+02  0.83755E+02 -0.12561E+03  0.63854E+01  0.24483E+01  0.37698E+02      982.00
  0.11746E+00  0.20506E+03    0.62500E-01  0.62500E-01 -0.12500E+00  0.00000E+00  0.00000E+00  0.00000E+00    0.39697E+02  0.86582E+02 -0.12628E+03  0.68789E+01  0.32106E+01  0.38082E+02      982.00
  0.14055E+00  0.21990E+03    0.75000E-01  0.75000E-01 -0.15000E+00  0.00000E+00  0.00000E+00  0.00000E+00    0.38611E+02  0.94802E+02 -0.13341E+03  0.82532E+01  0.46457E+01  0.43482E+02      982.00
  0.16330E+00  0.24426E+03    0.87500E-01  0.87500E-01 -0.17500E+00  0.00000E+00  0.00000E+00  0.00000E+00    0.38202E+02  0.10693E+03 -0.14513E+03  0.99191E+01  0.61373E+01  0.52653E+02      982.00
  0.18558E+00  0.27468E+03    0.10000E+00  0.10000E+00 -0.20000E+00  0.00000E+00  0.00000E+00  0.00000E+00    0.38284E+02  0.12135E+03 -0.15963E+03  0.11503E+02  0.74079E+01  0.64246E+02      982.00
  0.20737E+00  0.30590E+03    0.11250E+00  0.11250E+00 -0.22500E+00  0.00000E+00  0.00000E+00  0.00000E+00    0.38832E+02  0.13561E+03 -0.17444E+03  0.12715E+02  0.82785E+01  0.76144E+02      982.00
  0.22876E+00  0.33363E+03    0.12500E+00  0.12500E+00 -0.25000E+00  0.00000E+00  0.00000E+00  0.00000E+00    0.39683E+02  0.14796E+03 -0.18765E+03  0.13395E+02  0.87208E+01  0.86657E+02      982.00
  0.24985E+00  0.35597E+03    0.13750E+00  0.13750E+00 -0.27500E+00  0.00000E+00  0.00000E+00  0.00000E+00    0.40740E+02  0.15770E+03 -0.19844E+03  0.13628E+02  0.88066E+01  0.94970E+02      982.00
  0.27076E+00  0.37316E+03    0.15000E+00  0.15000E+00 -0.30000E+00  0.00000E+00  0.00000E+00  0.00000E+00    0.41881E+02  0.16509E+03 -0.20697E+03  0.13533E+02  0.86542E+01  0.10117E+03      982.00
  0.29156E+00  0.38586E+03    0.16250E+00  0.16250E+00 -0.32500E+00  0.00000E+00  0.00000E+00  0.00000E+00    0.43087E+02  0.17046E+03 -0.21355E+03  0.13232E+02  0.83556E+01  0.10548E+03      982.00
  0.31231E+00  0.39495E+03    0.17500E+00  0.17500E+00 -0.35000E+00  0.00000E+00  0.00000E+00  0.00000E+00    0.44321E+02  0.17425E+03 -0.21857E+03  0.12803E+02  0.79755E+01  0.10825E+03      982.00
  0.33306E+00  0.40120E+03    0.18750E+00  0.18750E+00 -0.37500E+00  0.00000E+00  0.00000E+00  0.00000E+00    0.45590E+02  0.17678E+03 -0.22237E+03  0.12285E+02  0.75605E+01  0.10980E+03      982.00
  0.35385E+00  0.40536E+03    0.20000E+00  0.20000E+00 -0.40000E+00  0.00000E+00  0.00000E+00  0.00000E+00    0.46938E+02  0.17837E+03 -0.22531E+03  0.11738E+02  0.71417E+01  0.11042E+03      982.00
  0.37469E+00  0.40742E+03    0.21250E+00  0.21250E+00 -0.42500E+00  0.00000E+00  0.00000E+00  0.00000E+00    0.48421E+02  0.17900E+03 -0.22742E+03  0.11230E+02  0.67261E+01  0.11002E+03      982.00
  0.39562E+00  0.40825E+03    0.22500E+00  0.22500E+00 -0.45000E+00  0.00000E+00  0.00000E+00  0.00000E+00    0.49925E+02  0.17912E+03 -0.22904E+03  0.10719E+02  0.63284E+01  0.10901E+03      982.00
  0.41666E+00  0.40812E+03    0.23750E+00  0.23750E+00 -0.47500E+00  0.00000E+00  0.00000E+00  0.00000E+00    0.51487E+02  0.17880E+03 -0.23028E+03  0.10230E+02  0.59620E+01  0.10750E+03      982.00
  0.43782E+00  0.40390E+03    0.25000E+00  0.25000E+00 -0.50000E+00  0.00000E+00  0.00000E+00  0.00000E+00    0.52739E+02  0.17675E+03 -0.22949E+03  0.97794E+01  0.56754E+01  0.10442E+03      982.00
  0.45913E+00  0.39984E+03    0.26250E+00  0.26250E+00 -0.52500E+00  0.00000E+00  0.00000E+00  0.00000E+00    0.54086E+02  0.17469E+03 -0.22878E+03  0.93727E+01  0.54041E+01  0.10140E+03      982.00
  0.48058E+00  0.39584E+03    0.27500E+00  0.27500E+00 -0.55000E+00  0.00000E+00  0.00000E+00  0.00000E+00    0.55519E+02  0.17259E+03 -0.22811E+03  0.90266E+01  0.51551E+01  0.98333E+02      982.00
  0.50219E+00  0.39180E+03    0.28750E+00  0.28750E+00 -0.57500E+00  0.00000E+00  0.00000E+00  0.00000E+00    0.57052E+02  0.17039E+03 -0.22744E+03  0.87515E+01  0.49328E+01  0.95192E+02      982.00
  0.52396E+00  0.38800E+03    0.30000E+00  0.30000E+00 -0.60000E+00  0.00000E+00  0.00000E+00  0.00000E+00    0.58626E+02  0.16825E+03 -0.22687E+03  0.85221E+01  0.47295E+01  0.92084E+02      982.00
  0.54589E+00  0.38436E+03    0.31250E+00  0.31250E+00 -0.62500E+00  0.00000E+00  0.00000E+00  0.00000E+00    0.60257E+02  0.16612E+03 -0.22638E+03  0.83472E+01  0.45488E+01  0.88977E+02      982.00
  0.56798E+00  0.38089E+03    0.32500E+00  0.32500E+00 -0.65000E+00  0.00000E+00  0.00000E+00  0.00000E+00    0.61940E+02  0.16402E+03 -0.22596E+03  0.82240E+01  0.43902E+01  0.85883E+02      982.00
  0.59022E+00  0.37764E+03    0.33750E+00  0.33750E+00 -0.67500E+00  0.00000E+00  0.00000E+00  0.00000E+00    0.63670E+02  0.16195E+03 -0.22562E+03  0.81487E+01  0.42527E+01  0.82817E+02      982.00
  0.61263E+00  0.37461E+03    0.35000E+00  0.35000E+00 -0.70000E+00  0.00000E+00  0.00000E+00  0.00000E+00    0.65441E+02  0.15994E+03 -0.22538E+03  0.81174E+01  0.41349E+01  0.79790E+02      982.00
  0.63519E+00  0.37183E+03    0.36250E+00  0.36250E+00 -0.72500E+00  0.00000E+00  0.00000E+00  0.00000E+00    0.67247E+02  0.15798E+03 -0.22523E+03  0.81255E+01  0.40354E+01  0.76815E+02      982.00
  0.65790E+00  0.36932E+03    0.37500E+00  0.37500E+00 -0.75000E+00  0.00000E+00  0.00000E+00  0.00000E+00    0.69081E+02  0.15610E+03 -0.22518E+03  0.81683E+01  0.39526E+01  0.73901E+02      982.00
  0.68077E+00  0.36709E+03    0.38750E+00  0.38750E+00 -0.77500E+00  0.00000E+00  0.00000E+00  0.00000E+00    0.70939E+02  0.15430E+03 -0.22523E+03  0.82407E+01  0.38850E+01  0.71057E+02      982.00
  0.70378E+00  0.36513E+03    0.40000E+00  0.40000E+00 -0.80000E+00  0.00000E+00  0.00000E+00  0.00000E+00    0.72814E+02  0.15258E+03 -0.22539E+03  0.83377E+01  0.38308E+01  0.68291E+02      982.00
  0.72693E+00  0.36330E+03    0.41250E+00  0.41250E+00 -0.82500E+00  0.00000E+00  0.00000E+00  0.00000E+00    0.74750E+02  0.15083E+03 -0.22558E+03  0.84882E+01  0.37891E+01  0.65554E+02      982.00
  0.75021E+00  0.36192E+03    0.42500E+00  0.42500E+00 -0.85000E+00  0.00000E+00  0.00000E+00  0.00000E+00    0.76639E+02  0.14931E+03 -0.22595E+03  0.86149E+01  0.37563E+01  0.62964E+02      982.00
  0.77362E+00  0.36082E+03    0.43750E+00  0.43750E+00 -0.87500E+00  0.00000E+00  0.00000E+00  0.00000E+00    0.78530E+02  0.14789E+03 -0.22642E+03  0.87519E+01  0.37322E+01  0.60465E+02      982.00
  0.79715E+00  0.36000E+03    0.45000E+00  0.45000E+00 -0.90000E+00  0.00000E+00  0.00000E+00  0.00000E+00    0.80418E+02  0.14657E+03 -0.22699E+03  0.88952E+01  0.37153E+01  0.58057E+02      982.00
  0.82080E+00  0.35948E+03    0.46250E+00  0.46250E+00 -0.92500E+00  0.00000E+00  0.00000E+00  0.00000E+00    0.82293E+02  0.14538E+03 -0.22767E+03  0.90535E+01  0.37051E+01  0.55750E+02      982.00
  0.84455E+00  0.35917E+03    0.47500E+00  0.47500E+00 -0.95000E+00  0.00000E+00  0.00000E+00  0.00000E+00    0.84168E+02  0.14426E+03 -0.22843E+03  0.91980E+01  0.36995E+01  0.53526E+02      982.00
  0.86840E+00  0.35910E+03    0.48750E+00  0.48750E+00 -0.97500E+00  0.00000E+00  0.00000E+00  0.00000E+00    0.86029E+02  0.14324E+03 -0.22927E+03  0.93147E+01  0.36948E+01  0.51403E+02      982.00
  0.89234E+00  0.35910E+03    0.50000E+00  0.50000E+00 -0.10000E+01  0.00000E+00  0.00000E+00  0.00000E+00    0.87901E+02  0.14220E+03 -0.23010E+03  0.94767E+01  0.36937E+01  0.49332E+02      982.00
