          Evm          Svm            E11          E22          E33          E23          E13          E12         SDEV11       SDEV22       SDEV33       SDEV23       SDEV13       SDEV12      TEMP
  0.00000E+00  0.15907E+03    0.00000E+00  0.00000E+00  0.00000E+00  0.00000E+00  0.00000E+00  0.00000E+00    0.57849E+02  0.46451E+02 -0.10430E+03 -0.85007E+01 -0.35856E+01  0.12574E+02      982.00
  0.24588E-01  0.15548E+03    0.12500E-01  0.12500E-01 -0.25000E-01  0.00000E+00  0.00000E+00  0.00000E+00    0.56517E+02  0.45393E+02 -0.10191E+03 -0.70721E+01 -0.29483E+01  0.13405E+02      982.00
  0.49167E-01  0.15678E+03    0.25000E-01  0.25000E-01 -0.50000E-01  0.00000E+00  0.00000E+00  0.00000E+00    0.56103E+02  0.46432E+02 -0.10254E+03 -0.64257E+01 -0.26407E+01  0.15388E+02      982.00
  0.73692E-01  0.16387E+03    0.37500E-01  0.37500E-01 -0.75000E-01  0.00000E+00  0.00000E+00  0.00000E+00    0.56513E+02  0.50153E+02 -0.10667E+03 -0.64341E+01 -0.26060E+01  0.18972E+02      982.00
  0.98101E-01  0.17834E+03    0.50000E-01  0.50000E-01 -0.10000E+00  0.00000E+00  0.00000E+00  0.00000E+00    0.57437E+02  0.57623E+02 -0.11506E+03 -0.70299E+01 -0.28028E+01  0.24812E+02      982.00
  0.12229E+00  0.20279E+03    0.62500E-01  0.62500E-01 -0.12500E+00  0.00000E+00  0.00000E+00  0.00000E+00    0.58160E+02  0.70713E+02 -0.12887E+03 -0.82166E+01 -0.31838E+01  0.33687E+02      982.00
  0.14613E+00  0.23657E+03    0.75000E-01  0.75000E-01 -0.15000E+00  0.00000E+00  0.00000E+00  0.00000E+00    0.57163E+02  0.90057E+02 -0.14722E+03 -0.97445E+01 -0.35595E+01  0.44956E+02      982.00
  0.16946E+00  0.26803E+03    0.87500E-01  0.87500E-01 -0.17500E+00  0.00000E+00  0.00000E+00  0.00000E+00    0.54963E+02  0.10861E+03 -0.16357E+03 -0.10827E+02 -0.36166E+01  0.55047E+02      982.00
  0.19235E+00  0.28986E+03    0.10000E+00  0.10000E+00 -0.20000E+00  0.00000E+00  0.00000E+00  0.00000E+00    0.55981E+02  0.11876E+03 -0.17474E+03 -0.11171E+02 -0.34321E+01  0.63111E+02      982.00
  0.21495E+00  0.30805E+03    0.11250E+00  0.11250E+00 -0.22500E+00  0.00000E+00  0.00000E+00  0.00000E+00    0.60858E+02  0.12352E+03 -0.18437E+03 -0.10989E+02 -0.33739E+01  0.70873E+02      982.00
  0.23740E+00  0.32501E+03    0.12500E+00  0.12500E+00 -0.25000E+00  0.00000E+00  0.00000E+00  0.00000E+00    0.67066E+02  0.12648E+03 -0.19355E+03 -0.10567E+02 -0.34600E+01  0.78150E+02      982.00
  0.25973E+00  0.33939E+03    0.13750E+00  0.13750E+00 -0.27500E+00  0.00000E+00  0.00000E+00  0.00000E+00    0.72985E+02  0.12854E+03 -0.20152E+03 -0.10096E+02 -0.35945E+01  0.83965E+02      982.00
  0.28200E+00  0.35067E+03    0.15000E+00  0.15000E+00 -0.30000E+00  0.00000E+00  0.00000E+00  0.00000E+00    0.78092E+02  0.12993E+03 -0.20803E+03 -0.96573E+01 -0.37208E+01  0.88060E+02      982.00
  0.30424E+00  0.35911E+03    0.16250E+00  0.16250E+00 -0.32500E+00  0.00000E+00  0.00000E+00  0.00000E+00    0.82426E+02  0.13078E+03 -0.21321E+03 -0.92756E+01 -0.38280E+01  0.90609E+02      982.00
  0.32651E+00  0.36522E+03    0.17500E+00  0.17500E+00 -0.35000E+00  0.00000E+00  0.00000E+00  0.00000E+00    0.86166E+02  0.13114E+03 -0.21731E+03 -0.89554E+01 -0.39241E+01  0.91880E+02      982.00
  0.34882E+00  0.36947E+03    0.18750E+00  0.18750E+00 -0.37500E+00  0.00000E+00  0.00000E+00  0.00000E+00    0.89443E+02  0.13114E+03 -0.22058E+03 -0.87018E+01 -0.40177E+01  0.92114E+02      982.00
  0.37121E+00  0.37234E+03    0.20000E+00  0.20000E+00 -0.40000E+00  0.00000E+00  0.00000E+00  0.00000E+00    0.92439E+02  0.13080E+03 -0.22324E+03 -0.85101E+01 -0.41190E+01  0.91542E+02      982.00
  0.39369E+00  0.37418E+03    0.21250E+00  0.21250E+00 -0.42500E+00  0.00000E+00  0.00000E+00  0.00000E+00    0.95192E+02  0.13025E+03 -0.22544E+03 -0.83874E+01 -0.42331E+01  0.90315E+02      982.00
  0.41629E+00  0.37528E+03    0.22500E+00  0.22500E+00 -0.45000E+00  0.00000E+00  0.00000E+00  0.00000E+00    0.97713E+02  0.12963E+03 -0.22734E+03 -0.83404E+01 -0.43647E+01  0.88537E+02      982.00
  0.43900E+00  0.37590E+03    0.23750E+00  0.23750E+00 -0.47500E+00  0.00000E+00  0.00000E+00  0.00000E+00    0.10011E+03  0.12893E+03 -0.22904E+03 -0.83598E+01 -0.45181E+01  0.86363E+02      982.00
  0.46185E+00  0.37368E+03    0.25000E+00  0.25000E+00 -0.50000E+00  0.00000E+00  0.00000E+00  0.00000E+00    0.10164E+03  0.12746E+03 -0.22911E+03 -0.83254E+01 -0.46223E+01  0.83200E+02      982.00
  0.48484E+00  0.37166E+03    0.26250E+00  0.26250E+00 -0.52500E+00  0.00000E+00  0.00000E+00  0.00000E+00    0.10301E+03  0.12623E+03 -0.22924E+03 -0.83307E+01 -0.47646E+01  0.80014E+02      982.00
  0.50797E+00  0.37005E+03    0.27500E+00  0.27500E+00 -0.55000E+00  0.00000E+00  0.00000E+00  0.00000E+00    0.10430E+03  0.12525E+03 -0.22956E+03 -0.83514E+01 -0.48882E+01  0.76944E+02      982.00
  0.53124E+00  0.36871E+03    0.28750E+00  0.28750E+00 -0.57500E+00  0.00000E+00  0.00000E+00  0.00000E+00    0.10553E+03  0.12445E+03 -0.22998E+03 -0.83975E+01 -0.50209E+01  0.73911E+02      982.00
  0.55463E+00  0.36764E+03    0.30000E+00  0.30000E+00 -0.60000E+00  0.00000E+00  0.00000E+00  0.00000E+00    0.10671E+03  0.12380E+03 -0.23051E+03 -0.84637E+01 -0.51604E+01  0.70931E+02      982.00
  0.57814E+00  0.36685E+03    0.31250E+00  0.31250E+00 -0.62500E+00  0.00000E+00  0.00000E+00  0.00000E+00    0.10784E+03  0.12331E+03 -0.23115E+03 -0.85454E+01 -0.53043E+01  0.68014E+02      982.00
  0.60177E+00  0.36632E+03    0.32500E+00  0.32500E+00 -0.65000E+00  0.00000E+00  0.00000E+00  0.00000E+00    0.10895E+03  0.12294E+03 -0.23189E+03 -0.86380E+01 -0.54505E+01  0.65170E+02      982.00
  0.62551E+00  0.36610E+03    0.33750E+00  0.33750E+00 -0.67500E+00  0.00000E+00  0.00000E+00  0.00000E+00    0.11005E+03  0.12270E+03 -0.23276E+03 -0.87429E+01 -0.56169E+01  0.62430E+02      982.00
  0.64935E+00  0.36609E+03    0.35000E+00  0.35000E+00 -0.70000E+00  0.00000E+00  0.00000E+00  0.00000E+00    0.11111E+03  0.12258E+03 -0.23369E+03 -0.88468E+01 -0.57591E+01  0.59750E+02      982.00
  0.67328E+00  0.36631E+03    0.36250E+00  0.36250E+00 -0.72500E+00  0.00000E+00  0.00000E+00  0.00000E+00    0.11215E+03  0.12257E+03 -0.23472E+03 -0.89507E+01 -0.58970E+01  0.57160E+02      982.00
  0.69731E+00  0.36677E+03    0.37500E+00  0.37500E+00 -0.75000E+00  0.00000E+00  0.00000E+00  0.00000E+00    0.11318E+03  0.12265E+03 -0.23583E+03 -0.90394E+01 -0.60002E+01  0.54677E+02      982.00
  0.72142E+00  0.36744E+03    0.38750E+00  0.38750E+00 -0.77500E+00  0.00000E+00  0.00000E+00  0.00000E+00    0.11420E+03  0.12281E+03 -0.23701E+03 -0.91372E+01 -0.61287E+01  0.52273E+02      982.00
  0.74561E+00  0.36830E+03    0.40000E+00  0.40000E+00 -0.80000E+00  0.00000E+00  0.00000E+00  0.00000E+00    0.11522E+03  0.12305E+03 -0.23827E+03 -0.92288E+01 -0.62489E+01  0.49963E+02      982.00
  0.76987E+00  0.36934E+03    0.41250E+00  0.41250E+00 -0.82500E+00  0.00000E+00  0.00000E+00  0.00000E+00    0.11623E+03  0.12336E+03 -0.23959E+03 -0.93127E+01 -0.63597E+01  0.47747E+02      982.00
  0.79420E+00  0.37056E+03    0.42500E+00  0.42500E+00 -0.85000E+00  0.00000E+00  0.00000E+00  0.00000E+00    0.11723E+03  0.12374E+03 -0.24097E+03 -0.93879E+01 -0.64605E+01  0.45624E+02      982.00
  0.81859E+00  0.37193E+03    0.43750E+00  0.43750E+00 -0.87500E+00  0.00000E+00  0.00000E+00  0.00000E+00    0.11824E+03  0.12417E+03 -0.24240E+03 -0.94539E+01 -0.65512E+01  0.43594E+02      982.00
  0.84303E+00  0.37337E+03    0.45000E+00  0.45000E+00 -0.90000E+00  0.00000E+00  0.00000E+00  0.00000E+00    0.11917E+03  0.12468E+03 -0.24385E+03 -0.95144E+01 -0.66447E+01  0.41606E+02      982.00
  0.86752E+00  0.37501E+03    0.46250E+00  0.46250E+00 -0.92500E+00  0.00000E+00  0.00000E+00  0.00000E+00    0.12016E+03  0.12520E+03 -0.24537E+03 -0.95605E+01 -0.67128E+01  0.39758E+02      982.00
  0.89205E+00  0.37676E+03    0.47500E+00  0.47500E+00 -0.95000E+00  0.00000E+00  0.00000E+00  0.00000E+00    0.12116E+03  0.12576E+03 -0.24692E+03 -0.95964E+01 -0.67705E+01  0.37995E+02      982.00
  0.91663E+00  0.37860E+03    0.48750E+00  0.48750E+00 -0.97500E+00  0.00000E+00  0.00000E+00  0.00000E+00    0.12215E+03  0.12635E+03 -0.24851E+03 -0.96226E+01 -0.68183E+01  0.36314E+02      982.00
  0.94124E+00  0.38052E+03    0.50000E+00  0.50000E+00 -0.10000E+01  0.00000E+00  0.00000E+00  0.00000E+00    0.12314E+03  0.12697E+03 -0.25011E+03 -0.96394E+01 -0.68566E+01  0.34711E+02      982.00
