          Evm          Svm            E11          E22          E33          E23          E13          E12         SDEV11       SDEV22       SDEV33       SDEV23       SDEV13       SDEV12      TEMP
  0.00000E+00  0.15907E+03    0.00000E+00  0.00000E+00  0.00000E+00  0.00000E+00  0.00000E+00  0.00000E+00    0.46449E+02  0.57847E+02 -0.10430E+03  0.35867E+01  0.85034E+01  0.12569E+02      982.00
  0.24588E-01  0.15548E+03    0.12500E-01  0.12500E-01 -0.25000E-01  0.00000E+00  0.00000E+00  0.00000E+00    0.45392E+02  0.56515E+02 -0.10191E+03  0.29482E+01  0.70723E+01  0.13404E+02      982.00
  0.49167E-01  0.15678E+03    0.25000E-01  0.25000E-01 -0.50000E-01  0.00000E+00  0.00000E+00  0.00000E+00    0.46431E+02  0.56102E+02 -0.10253E+03  0.26407E+01  0.64260E+01  0.15387E+02      982.00
  0.73692E-01  0.16387E+03    0.37500E-01  0.37500E-01 -0.75000E-01  0.00000E+00  0.00000E+00  0.00000E+00    0.50153E+02  0.56511E+02 -0.10666E+03  0.26061E+01  0.64346E+01  0.18971E+02      982.00
  0.98101E-01  0.17834E+03    0.50000E-01  0.50000E-01 -0.10000E+00  0.00000E+00  0.00000E+00  0.00000E+00    0.57625E+02  0.57433E+02 -0.11506E+03  0.28033E+01  0.70316E+01  0.24811E+02      982.00
  0.12229E+00  0.20281E+03    0.62500E-01  0.62500E-01 -0.12500E+00  0.00000E+00  0.00000E+00  0.00000E+00    0.70732E+02  0.58150E+02 -0.12888E+03  0.31855E+01  0.82222E+01  0.33693E+02      982.00
  0.14613E+00  0.23668E+03    0.75000E-01  0.75000E-01 -0.15000E+00  0.00000E+00  0.00000E+00  0.00000E+00    0.90144E+02  0.57130E+02 -0.14727E+03  0.35642E+01  0.97611E+01  0.44992E+02      982.00
  0.16946E+00  0.26830E+03    0.87500E-01  0.87500E-01 -0.17500E+00  0.00000E+00  0.00000E+00  0.00000E+00    0.10881E+03  0.54887E+02 -0.16370E+03  0.36230E+01  0.10857E+02  0.55141E+02      982.00
  0.19234E+00  0.29021E+03    0.10000E+00  0.10000E+00 -0.20000E+00  0.00000E+00  0.00000E+00  0.00000E+00    0.11903E+03  0.55873E+02 -0.17490E+03  0.34381E+01  0.11208E+02  0.63229E+02      982.00
  0.21494E+00  0.30854E+03    0.11250E+00  0.11250E+00 -0.22500E+00  0.00000E+00  0.00000E+00  0.00000E+00    0.12387E+03  0.60711E+02 -0.18458E+03  0.33722E+01  0.11029E+02  0.71046E+02      982.00
  0.23737E+00  0.32553E+03    0.12500E+00  0.12500E+00 -0.25000E+00  0.00000E+00  0.00000E+00  0.00000E+00    0.12691E+03  0.66865E+02 -0.19378E+03  0.34506E+01  0.10607E+02  0.78327E+02      982.00
  0.25970E+00  0.33993E+03    0.13750E+00  0.13750E+00 -0.27500E+00  0.00000E+00  0.00000E+00  0.00000E+00    0.12904E+03  0.72724E+02 -0.20176E+03  0.35743E+01  0.10135E+02  0.84134E+02      982.00
  0.28195E+00  0.35122E+03    0.15000E+00  0.15000E+00 -0.30000E+00  0.00000E+00  0.00000E+00  0.00000E+00    0.13049E+03  0.77779E+02 -0.20827E+03  0.36877E+01  0.96930E+01  0.88214E+02      982.00
  0.30419E+00  0.35965E+03    0.16250E+00  0.16250E+00 -0.32500E+00  0.00000E+00  0.00000E+00  0.00000E+00    0.13138E+03  0.82073E+02 -0.21346E+03  0.37807E+01  0.93059E+01  0.90744E+02      982.00
  0.32645E+00  0.36573E+03    0.17500E+00  0.17500E+00 -0.35000E+00  0.00000E+00  0.00000E+00  0.00000E+00    0.13177E+03  0.85785E+02 -0.21756E+03  0.38620E+01  0.89782E+01  0.91993E+02      982.00
  0.34876E+00  0.36996E+03    0.18750E+00  0.18750E+00 -0.37500E+00  0.00000E+00  0.00000E+00  0.00000E+00    0.13178E+03  0.89045E+02 -0.22083E+03  0.39408E+01  0.87155E+01  0.92203E+02      982.00
  0.37114E+00  0.37278E+03    0.20000E+00  0.20000E+00 -0.40000E+00  0.00000E+00  0.00000E+00  0.00000E+00    0.13144E+03  0.92033E+02 -0.22347E+03  0.40279E+01  0.85132E+01  0.91607E+02      982.00
  0.39362E+00  0.37456E+03    0.21250E+00  0.21250E+00 -0.42500E+00  0.00000E+00  0.00000E+00  0.00000E+00    0.13091E+03  0.94746E+02 -0.22566E+03  0.41288E+01  0.83839E+01  0.90331E+02      982.00
  0.41621E+00  0.37562E+03    0.22500E+00  0.22500E+00 -0.45000E+00  0.00000E+00  0.00000E+00  0.00000E+00    0.13023E+03  0.97307E+02 -0.22754E+03  0.42469E+01  0.83192E+01  0.88549E+02      982.00
  0.43893E+00  0.37618E+03    0.23750E+00  0.23750E+00 -0.47500E+00  0.00000E+00  0.00000E+00  0.00000E+00    0.12950E+03  0.99711E+02 -0.22921E+03  0.43880E+01  0.83254E+01  0.86350E+02      982.00
  0.46178E+00  0.37390E+03    0.25000E+00  0.25000E+00 -0.50000E+00  0.00000E+00  0.00000E+00  0.00000E+00    0.12799E+03  0.10126E+03 -0.22925E+03  0.44851E+01  0.82795E+01  0.83165E+02      982.00
  0.48477E+00  0.37181E+03    0.26250E+00  0.26250E+00 -0.52500E+00  0.00000E+00  0.00000E+00  0.00000E+00    0.12672E+03  0.10263E+03 -0.22935E+03  0.46210E+01  0.82743E+01  0.79958E+02      982.00
  0.50790E+00  0.37015E+03    0.27500E+00  0.27500E+00 -0.55000E+00  0.00000E+00  0.00000E+00  0.00000E+00    0.12571E+03  0.10393E+03 -0.22964E+03  0.47381E+01  0.82848E+01  0.76872E+02      982.00
  0.53117E+00  0.36875E+03    0.28750E+00  0.28750E+00 -0.57500E+00  0.00000E+00  0.00000E+00  0.00000E+00    0.12488E+03  0.10515E+03 -0.23003E+03  0.48647E+01  0.83211E+01  0.73824E+02      982.00
  0.55456E+00  0.36762E+03    0.30000E+00  0.30000E+00 -0.60000E+00  0.00000E+00  0.00000E+00  0.00000E+00    0.12421E+03  0.10632E+03 -0.23052E+03  0.49985E+01  0.83776E+01  0.70833E+02      982.00
  0.57807E+00  0.36677E+03    0.31250E+00  0.31250E+00 -0.62500E+00  0.00000E+00  0.00000E+00  0.00000E+00    0.12369E+03  0.10744E+03 -0.23112E+03  0.51371E+01  0.84497E+01  0.67908E+02      982.00
  0.60171E+00  0.36617E+03    0.32500E+00  0.32500E+00 -0.65000E+00  0.00000E+00  0.00000E+00  0.00000E+00    0.12330E+03  0.10852E+03 -0.23182E+03  0.52784E+01  0.85328E+01  0.65060E+02      982.00
  0.62545E+00  0.36588E+03    0.33750E+00  0.33750E+00 -0.67500E+00  0.00000E+00  0.00000E+00  0.00000E+00    0.12304E+03  0.10959E+03 -0.23264E+03  0.54395E+01  0.86277E+01  0.62318E+02      982.00
  0.64929E+00  0.36579E+03    0.35000E+00  0.35000E+00 -0.70000E+00  0.00000E+00  0.00000E+00  0.00000E+00    0.12290E+03  0.11062E+03 -0.23352E+03  0.55776E+01  0.87223E+01  0.59640E+02      982.00
  0.67323E+00  0.36594E+03    0.36250E+00  0.36250E+00 -0.72500E+00  0.00000E+00  0.00000E+00  0.00000E+00    0.12287E+03  0.11162E+03 -0.23449E+03  0.57120E+01  0.88171E+01  0.57054E+02      982.00
  0.69726E+00  0.36632E+03    0.37500E+00  0.37500E+00 -0.75000E+00  0.00000E+00  0.00000E+00  0.00000E+00    0.12293E+03  0.11261E+03 -0.23554E+03  0.58126E+01  0.88972E+01  0.54579E+02      982.00
  0.72137E+00  0.36689E+03    0.38750E+00  0.38750E+00 -0.77500E+00  0.00000E+00  0.00000E+00  0.00000E+00    0.12307E+03  0.11359E+03 -0.23666E+03  0.59387E+01  0.89862E+01  0.52184E+02      982.00
  0.74556E+00  0.36765E+03    0.40000E+00  0.40000E+00 -0.80000E+00  0.00000E+00  0.00000E+00  0.00000E+00    0.12329E+03  0.11455E+03 -0.23785E+03  0.60571E+01  0.90693E+01  0.49886E+02      982.00
  0.76982E+00  0.36859E+03    0.41250E+00  0.41250E+00 -0.82500E+00  0.00000E+00  0.00000E+00  0.00000E+00    0.12358E+03  0.11551E+03 -0.23909E+03  0.61667E+01  0.91449E+01  0.47684E+02      982.00
  0.79415E+00  0.36969E+03    0.42500E+00  0.42500E+00 -0.85000E+00  0.00000E+00  0.00000E+00  0.00000E+00    0.12394E+03  0.11646E+03 -0.24039E+03  0.62673E+01  0.92125E+01  0.45579E+02      982.00
  0.81853E+00  0.37094E+03    0.43750E+00  0.43750E+00 -0.87500E+00  0.00000E+00  0.00000E+00  0.00000E+00    0.12434E+03  0.11740E+03 -0.24174E+03  0.63578E+01  0.92707E+01  0.43567E+02      982.00
  0.84297E+00  0.37224E+03    0.45000E+00  0.45000E+00 -0.90000E+00  0.00000E+00  0.00000E+00  0.00000E+00    0.12483E+03  0.11826E+03 -0.24308E+03  0.64521E+01  0.93240E+01  0.41598E+02      982.00
  0.86746E+00  0.37374E+03    0.46250E+00  0.46250E+00 -0.92500E+00  0.00000E+00  0.00000E+00  0.00000E+00    0.12532E+03  0.11919E+03 -0.24451E+03  0.65215E+01  0.93633E+01  0.39772E+02      982.00
  0.89199E+00  0.37533E+03    0.47500E+00  0.47500E+00 -0.95000E+00  0.00000E+00  0.00000E+00  0.00000E+00    0.12585E+03  0.12011E+03 -0.24596E+03  0.65811E+01  0.93928E+01  0.38033E+02      982.00
  0.91657E+00  0.37702E+03    0.48750E+00  0.48750E+00 -0.97500E+00  0.00000E+00  0.00000E+00  0.00000E+00    0.12640E+03  0.12103E+03 -0.24743E+03  0.66314E+01  0.94131E+01  0.36377E+02      982.00
  0.94118E+00  0.37877E+03    0.50000E+00  0.50000E+00 -0.10000E+01  0.00000E+00  0.00000E+00  0.00000E+00    0.12698E+03  0.12194E+03 -0.24892E+03  0.66727E+01  0.94244E+01  0.34801E+02      982.00
