          Evm          Svm            E11          E22          E33          E23          E13          E12         SDEV11       SDEV22       SDEV33       SDEV23       SDEV13       SDEV12      TEMP
  0.00000E+00  0.16895E+03    0.00000E+00  0.00000E+00  0.00000E+00  0.00000E+00  0.00000E+00  0.00000E+00    0.50071E+02  0.61309E+02 -0.11138E+03  0.27200E+01  0.72211E+01  0.10943E+02      982.00
  0.24721E-01  0.16825E+03    0.12500E-01  0.12500E-01 -0.25000E-01  0.00000E+00  0.00000E+00  0.00000E+00    0.51129E+02  0.59761E+02 -0.11089E+03  0.22654E+01  0.64951E+01  0.12166E+02      982.00
  0.49436E-01  0.17625E+03    0.25000E-01  0.25000E-01 -0.50000E-01  0.00000E+00  0.00000E+00  0.00000E+00    0.57354E+02  0.58587E+02 -0.11594E+03  0.21844E+01  0.69224E+01  0.14816E+02      982.00
  0.74105E-01  0.18746E+03    0.37500E-01  0.37500E-01 -0.75000E-01  0.00000E+00  0.00000E+00  0.00000E+00    0.66417E+02  0.56344E+02 -0.12276E+03  0.21397E+01  0.77052E+01  0.17943E+02      982.00
  0.98662E-01  0.19675E+03    0.50000E-01  0.50000E-01 -0.10000E+00  0.00000E+00  0.00000E+00  0.00000E+00    0.73017E+02  0.55078E+02 -0.12810E+03  0.19521E+01  0.78031E+01  0.21277E+02      982.00
  0.12308E+00  0.20941E+03    0.62500E-01  0.62500E-01 -0.12500E+00  0.00000E+00  0.00000E+00  0.00000E+00    0.79296E+02  0.56068E+02 -0.13536E+03  0.19800E+01  0.75022E+01  0.26077E+02      982.00
  0.14732E+00  0.22759E+03    0.75000E-01  0.75000E-01 -0.15000E+00  0.00000E+00  0.00000E+00  0.00000E+00    0.86922E+02  0.58894E+02 -0.14582E+03  0.22069E+01  0.73117E+01  0.32620E+02      982.00
  0.17134E+00  0.24998E+03    0.87500E-01  0.87500E-01 -0.17500E+00  0.00000E+00  0.00000E+00  0.00000E+00    0.95643E+02  0.63014E+02 -0.15866E+03  0.25234E+01  0.73243E+01  0.40305E+02      982.00
  0.19514E+00  0.27346E+03    0.10000E+00  0.10000E+00 -0.20000E+00  0.00000E+00  0.00000E+00  0.00000E+00    0.10437E+03  0.67768E+02 -0.17214E+03  0.28284E+01  0.74524E+01  0.48011E+02      982.00
  0.21875E+00  0.29480E+03    0.11250E+00  0.11250E+00 -0.22500E+00  0.00000E+00  0.00000E+00  0.00000E+00    0.11209E+03  0.72437E+02 -0.18452E+03  0.31047E+01  0.76276E+01  0.54515E+02      982.00
  0.24222E+00  0.31265E+03    0.12500E+00  0.12500E+00 -0.25000E+00  0.00000E+00  0.00000E+00  0.00000E+00    0.11839E+03  0.76694E+02 -0.19509E+03  0.33277E+01  0.78034E+01  0.59439E+02      982.00
  0.26562E+00  0.32684E+03    0.13750E+00  0.13750E+00 -0.27500E+00  0.00000E+00  0.00000E+00  0.00000E+00    0.12339E+03  0.80379E+02 -0.20377E+03  0.35389E+01  0.80036E+01  0.62682E+02      982.00
  0.28900E+00  0.33805E+03    0.15000E+00  0.15000E+00 -0.30000E+00  0.00000E+00  0.00000E+00  0.00000E+00    0.12726E+03  0.83625E+02 -0.21089E+03  0.37199E+01  0.82116E+01  0.64651E+02      982.00
  0.31239E+00  0.34673E+03    0.16250E+00  0.16250E+00 -0.32500E+00  0.00000E+00  0.00000E+00  0.00000E+00    0.13020E+03  0.86509E+02 -0.21671E+03  0.38992E+01  0.84472E+01  0.65483E+02      982.00
  0.33583E+00  0.35355E+03    0.17500E+00  0.17500E+00 -0.35000E+00  0.00000E+00  0.00000E+00  0.00000E+00    0.13240E+03  0.89166E+02 -0.22156E+03  0.40790E+01  0.87071E+01  0.65490E+02      982.00
  0.35933E+00  0.35930E+03    0.18750E+00  0.18750E+00 -0.37500E+00  0.00000E+00  0.00000E+00  0.00000E+00    0.13421E+03  0.91727E+02 -0.22594E+03  0.43735E+01  0.90874E+01  0.64750E+02      982.00
  0.38291E+00  0.36353E+03    0.20000E+00  0.20000E+00 -0.40000E+00  0.00000E+00  0.00000E+00  0.00000E+00    0.13541E+03  0.94052E+02 -0.22946E+03  0.45562E+01  0.94049E+01  0.63465E+02      982.00
  0.40658E+00  0.36731E+03    0.21250E+00  0.21250E+00 -0.42500E+00  0.00000E+00  0.00000E+00  0.00000E+00    0.13639E+03  0.96370E+02 -0.23276E+03  0.48076E+01  0.98082E+01  0.61803E+02      982.00
  0.43035E+00  0.37067E+03    0.22500E+00  0.22500E+00 -0.45000E+00  0.00000E+00  0.00000E+00  0.00000E+00    0.13711E+03  0.98703E+02 -0.23581E+03  0.50450E+01  0.10229E+02  0.59959E+02      982.00
  0.45420E+00  0.37081E+03    0.23750E+00  0.23750E+00 -0.47500E+00  0.00000E+00  0.00000E+00  0.00000E+00    0.13665E+03  0.10017E+03 -0.23682E+03  0.51327E+01  0.10394E+02  0.57485E+02      982.00
  0.47815E+00  0.37117E+03    0.25000E+00  0.25000E+00 -0.50000E+00  0.00000E+00  0.00000E+00  0.00000E+00    0.13624E+03  0.10169E+03 -0.23793E+03  0.52894E+01  0.10591E+02  0.55029E+02      982.00
  0.50219E+00  0.37185E+03    0.26250E+00  0.26250E+00 -0.52500E+00  0.00000E+00  0.00000E+00  0.00000E+00    0.13588E+03  0.10328E+03 -0.23917E+03  0.54360E+01  0.10781E+02  0.52727E+02      982.00
  0.52631E+00  0.37276E+03    0.27500E+00  0.27500E+00 -0.55000E+00  0.00000E+00  0.00000E+00  0.00000E+00    0.13559E+03  0.10491E+03 -0.24050E+03  0.55860E+01  0.10972E+02  0.50503E+02      982.00
  0.55050E+00  0.37388E+03    0.28750E+00  0.28750E+00 -0.57500E+00  0.00000E+00  0.00000E+00  0.00000E+00    0.13535E+03  0.10656E+03 -0.24191E+03  0.57374E+01  0.11161E+02  0.48361E+02      982.00
  0.57477E+00  0.37517E+03    0.30000E+00  0.30000E+00 -0.60000E+00  0.00000E+00  0.00000E+00  0.00000E+00    0.13517E+03  0.10823E+03 -0.24341E+03  0.59532E+01  0.11378E+02  0.46202E+02      982.00
  0.59910E+00  0.37669E+03    0.31250E+00  0.31250E+00 -0.62500E+00  0.00000E+00  0.00000E+00  0.00000E+00    0.13503E+03  0.10996E+03 -0.24499E+03  0.60951E+01  0.11551E+02  0.44242E+02      982.00
  0.62348E+00  0.37833E+03    0.32500E+00  0.32500E+00 -0.65000E+00  0.00000E+00  0.00000E+00  0.00000E+00    0.13490E+03  0.11170E+03 -0.24659E+03  0.62447E+01  0.11705E+02  0.42371E+02      982.00
  0.64793E+00  0.38018E+03    0.33750E+00  0.33750E+00 -0.67500E+00  0.00000E+00  0.00000E+00  0.00000E+00    0.13482E+03  0.11347E+03 -0.24829E+03  0.63765E+01  0.11853E+02  0.40580E+02      982.00
  0.67242E+00  0.38215E+03    0.35000E+00  0.35000E+00 -0.70000E+00  0.00000E+00  0.00000E+00  0.00000E+00    0.13477E+03  0.11526E+03 -0.25003E+03  0.65058E+01  0.11994E+02  0.38863E+02      982.00
  0.69695E+00  0.38424E+03    0.36250E+00  0.36250E+00 -0.72500E+00  0.00000E+00  0.00000E+00  0.00000E+00    0.13475E+03  0.11706E+03 -0.25181E+03  0.66222E+01  0.12108E+02  0.37234E+02      982.00
  0.72153E+00  0.38641E+03    0.37500E+00  0.37500E+00 -0.75000E+00  0.00000E+00  0.00000E+00  0.00000E+00    0.13476E+03  0.11886E+03 -0.25362E+03  0.67287E+01  0.12202E+02  0.35682E+02      982.00
  0.74614E+00  0.38862E+03    0.38750E+00  0.38750E+00 -0.77500E+00  0.00000E+00  0.00000E+00  0.00000E+00    0.13479E+03  0.12061E+03 -0.25540E+03  0.67756E+01  0.12259E+02  0.34227E+02      982.00
  0.77079E+00  0.39090E+03    0.40000E+00  0.40000E+00 -0.80000E+00  0.00000E+00  0.00000E+00  0.00000E+00    0.13486E+03  0.12236E+03 -0.25722E+03  0.68649E+01  0.12312E+02  0.32806E+02      982.00
  0.79546E+00  0.39320E+03    0.41250E+00  0.41250E+00 -0.82500E+00  0.00000E+00  0.00000E+00  0.00000E+00    0.13497E+03  0.12405E+03 -0.25902E+03  0.69331E+01  0.12339E+02  0.31451E+02      982.00
  0.82017E+00  0.39547E+03    0.42500E+00  0.42500E+00 -0.85000E+00  0.00000E+00  0.00000E+00  0.00000E+00    0.13510E+03  0.12567E+03 -0.26077E+03  0.69880E+01  0.12337E+02  0.30161E+02      982.00
  0.84489E+00  0.39779E+03    0.43750E+00  0.43750E+00 -0.87500E+00  0.00000E+00  0.00000E+00  0.00000E+00    0.13521E+03  0.12732E+03 -0.26253E+03  0.70302E+01  0.12312E+02  0.28943E+02      982.00
  0.86964E+00  0.40009E+03    0.45000E+00  0.45000E+00 -0.90000E+00  0.00000E+00  0.00000E+00  0.00000E+00    0.13539E+03  0.12888E+03 -0.26426E+03  0.70603E+01  0.12269E+02  0.27764E+02      982.00
  0.89441E+00  0.40236E+03    0.46250E+00  0.46250E+00 -0.92500E+00  0.00000E+00  0.00000E+00  0.00000E+00    0.13559E+03  0.13036E+03 -0.26595E+03  0.70759E+01  0.12204E+02  0.26637E+02      982.00
  0.91920E+00  0.40463E+03    0.47500E+00  0.47500E+00 -0.95000E+00  0.00000E+00  0.00000E+00  0.00000E+00    0.13581E+03  0.13182E+03 -0.26763E+03  0.70838E+01  0.12124E+02  0.25573E+02      982.00
  0.94400E+00  0.40691E+03    0.48750E+00  0.48750E+00 -0.97500E+00  0.00000E+00  0.00000E+00  0.00000E+00    0.13607E+03  0.13323E+03 -0.26930E+03  0.70846E+01  0.12036E+02  0.24551E+02      982.00
  0.96882E+00  0.40904E+03    0.50000E+00  0.50000E+00 -0.10000E+01  0.00000E+00  0.00000E+00  0.00000E+00    0.13636E+03  0.13450E+03 -0.27086E+03  0.70629E+01  0.11923E+02  0.23572E+02      982.00
