          Evm          Svm            E11          E22          E33          E23          E13          E12         SDEV11       SDEV22       SDEV33       SDEV23       SDEV13       SDEV12      TEMP
  0.00000E+00  0.14850E+03    0.00000E+00  0.00000E+00  0.00000E+00  0.00000E+00  0.00000E+00  0.00000E+00    0.55107E+02  0.41547E+02 -0.96654E+02 -0.77884E+01 -0.80983E+01  0.13123E+02      982.00
  0.24407E-01  0.14610E+03    0.12500E-01  0.12500E-01 -0.25000E-01  0.00000E+00  0.00000E+00  0.00000E+00    0.54079E+02  0.40911E+02 -0.94990E+02 -0.67741E+01 -0.77309E+01  0.14106E+02      982.00
  0.48788E-01  0.14766E+03    0.25000E-01  0.25000E-01 -0.50000E-01  0.00000E+00  0.00000E+00  0.00000E+00    0.53900E+02  0.41780E+02 -0.95681E+02 -0.63683E+01 -0.77329E+01  0.16278E+02      982.00
  0.73087E-01  0.15392E+03    0.37500E-01  0.37500E-01 -0.75000E-01  0.00000E+00  0.00000E+00  0.00000E+00    0.54591E+02  0.44486E+02 -0.99077E+02 -0.64722E+01 -0.80281E+01  0.20080E+02      982.00
  0.97225E-01  0.16592E+03    0.50000E-01  0.50000E-01 -0.10000E+00  0.00000E+00  0.00000E+00  0.00000E+00    0.56141E+02  0.49442E+02 -0.10558E+03 -0.69901E+01 -0.85655E+01  0.26124E+02      982.00
  0.12109E+00  0.18533E+03    0.62500E-01  0.62500E-01 -0.12500E+00  0.00000E+00  0.00000E+00  0.00000E+00    0.58602E+02  0.57200E+02 -0.11580E+03 -0.78545E+01 -0.93172E+01  0.35248E+02      982.00
  0.14452E+00  0.21391E+03    0.75000E-01  0.75000E-01 -0.15000E+00  0.00000E+00  0.00000E+00  0.00000E+00    0.62018E+02  0.68215E+02 -0.13023E+03 -0.89519E+01 -0.10229E+02  0.48342E+02      982.00
  0.16735E+00  0.25135E+03    0.87500E-01  0.87500E-01 -0.17500E+00  0.00000E+00  0.00000E+00  0.00000E+00    0.66345E+02  0.82040E+02 -0.14839E+03 -0.10038E+02 -0.11127E+02  0.65260E+02      982.00
  0.18949E+00  0.29263E+03    0.10000E+00  0.10000E+00 -0.20000E+00  0.00000E+00  0.00000E+00  0.00000E+00    0.71287E+02  0.96506E+02 -0.16779E+03 -0.10767E+02 -0.11718E+02  0.83758E+02      982.00
  0.21099E+00  0.33046E+03    0.11250E+00  0.11250E+00 -0.22500E+00  0.00000E+00  0.00000E+00  0.00000E+00    0.76336E+02  0.10897E+03 -0.18531E+03 -0.10969E+02 -0.11843E+02  0.10059E+03      982.00
  0.23202E+00  0.36119E+03    0.12500E+00  0.12500E+00 -0.25000E+00  0.00000E+00  0.00000E+00  0.00000E+00    0.81040E+02  0.11850E+03 -0.19954E+03 -0.10746E+02 -0.11589E+02  0.11411E+03      982.00
  0.25274E+00  0.38491E+03    0.13750E+00  0.13750E+00 -0.27500E+00  0.00000E+00  0.00000E+00  0.00000E+00    0.85144E+02  0.12554E+03 -0.21068E+03 -0.10253E+02 -0.11089E+02  0.12433E+03      982.00
  0.27326E+00  0.40324E+03    0.15000E+00  0.15000E+00 -0.30000E+00  0.00000E+00  0.00000E+00  0.00000E+00    0.88618E+02  0.13087E+03 -0.21949E+03 -0.95428E+01 -0.10382E+02  0.13200E+03      982.00
  0.29368E+00  0.41777E+03    0.16250E+00  0.16250E+00 -0.32500E+00  0.00000E+00  0.00000E+00  0.00000E+00    0.91479E+02  0.13519E+03 -0.22667E+03 -0.85757E+01 -0.94144E+01  0.13785E+03      982.00
  0.31402E+00  0.42955E+03    0.17500E+00  0.17500E+00 -0.35000E+00  0.00000E+00  0.00000E+00  0.00000E+00    0.93604E+02  0.13906E+03 -0.23267E+03 -0.72321E+01 -0.80761E+01  0.14237E+03      982.00
  0.33433E+00  0.43822E+03    0.18750E+00  0.18750E+00 -0.37500E+00  0.00000E+00  0.00000E+00  0.00000E+00    0.94676E+02  0.14263E+03 -0.23731E+03 -0.55441E+01 -0.64529E+01  0.14536E+03      982.00
  0.35464E+00  0.44092E+03    0.20000E+00  0.20000E+00 -0.40000E+00  0.00000E+00  0.00000E+00  0.00000E+00    0.94794E+02  0.14470E+03 -0.23949E+03 -0.44272E+01 -0.53309E+01  0.14531E+03      982.00
  0.37501E+00  0.43991E+03    0.21250E+00  0.21250E+00 -0.42500E+00  0.00000E+00  0.00000E+00  0.00000E+00    0.94974E+02  0.14525E+03 -0.24023E+03 -0.40155E+01 -0.47218E+01  0.14336E+03      982.00
  0.39549E+00  0.43789E+03    0.22500E+00  0.22500E+00 -0.45000E+00  0.00000E+00  0.00000E+00  0.00000E+00    0.95402E+02  0.14520E+03 -0.24060E+03 -0.38303E+01 -0.42411E+01  0.14088E+03      982.00
  0.41609E+00  0.43539E+03    0.23750E+00  0.23750E+00 -0.47500E+00  0.00000E+00  0.00000E+00  0.00000E+00    0.95900E+02  0.14489E+03 -0.24079E+03 -0.37333E+01 -0.37865E+01  0.13811E+03      982.00
  0.43683E+00  0.43245E+03    0.25000E+00  0.25000E+00 -0.50000E+00  0.00000E+00  0.00000E+00  0.00000E+00    0.96492E+02  0.14436E+03 -0.24086E+03 -0.37181E+01 -0.33952E+01  0.13503E+03      982.00
  0.45772E+00  0.42736E+03    0.26250E+00  0.26250E+00 -0.52500E+00  0.00000E+00  0.00000E+00  0.00000E+00    0.96923E+02  0.14298E+03 -0.23990E+03 -0.38493E+01 -0.31509E+01  0.13100E+03      982.00
  0.47877E+00  0.42223E+03    0.27500E+00  0.27500E+00 -0.55000E+00  0.00000E+00  0.00000E+00  0.00000E+00    0.97384E+02  0.14156E+03 -0.23895E+03 -0.40513E+01 -0.29516E+01  0.12685E+03      982.00
  0.49999E+00  0.41707E+03    0.28750E+00  0.28750E+00 -0.57500E+00  0.00000E+00  0.00000E+00  0.00000E+00    0.97917E+02  0.14008E+03 -0.23800E+03 -0.43564E+01 -0.28085E+01  0.12259E+03      982.00
  0.52139E+00  0.41204E+03    0.30000E+00  0.30000E+00 -0.60000E+00  0.00000E+00  0.00000E+00  0.00000E+00    0.98504E+02  0.13859E+03 -0.23710E+03 -0.46655E+01 -0.26890E+01  0.11832E+03      982.00
  0.54297E+00  0.40722E+03    0.31250E+00  0.31250E+00 -0.62500E+00  0.00000E+00  0.00000E+00  0.00000E+00    0.99101E+02  0.13718E+03 -0.23628E+03 -0.50187E+01 -0.26144E+01  0.11405E+03      982.00
  0.56473E+00  0.40265E+03    0.32500E+00  0.32500E+00 -0.65000E+00  0.00000E+00  0.00000E+00  0.00000E+00    0.99729E+02  0.13584E+03 -0.23557E+03 -0.53700E+01 -0.25726E+01  0.10983E+03      982.00
  0.58667E+00  0.39837E+03    0.33750E+00  0.33750E+00 -0.67500E+00  0.00000E+00  0.00000E+00  0.00000E+00    0.10044E+03  0.13453E+03 -0.23497E+03 -0.57608E+01 -0.25823E+01  0.10565E+03      982.00
  0.60878E+00  0.39441E+03    0.35000E+00  0.35000E+00 -0.70000E+00  0.00000E+00  0.00000E+00  0.00000E+00    0.10109E+03  0.13341E+03 -0.23449E+03 -0.61351E+01 -0.26283E+01  0.10152E+03      982.00
  0.63108E+00  0.39093E+03    0.36250E+00  0.36250E+00 -0.72500E+00  0.00000E+00  0.00000E+00  0.00000E+00    0.10183E+03  0.13239E+03 -0.23422E+03 -0.65323E+01 -0.27050E+01  0.97539E+02      982.00
  0.65355E+00  0.38780E+03    0.37500E+00  0.37500E+00 -0.75000E+00  0.00000E+00  0.00000E+00  0.00000E+00    0.10255E+03  0.13153E+03 -0.23408E+03 -0.69225E+01 -0.28107E+01  0.93628E+02      982.00
  0.67618E+00  0.38498E+03    0.38750E+00  0.38750E+00 -0.77500E+00  0.00000E+00  0.00000E+00  0.00000E+00    0.10328E+03  0.13080E+03 -0.23408E+03 -0.73384E+01 -0.29647E+01  0.89760E+02      982.00
  0.69898E+00  0.38265E+03    0.40000E+00  0.40000E+00 -0.80000E+00  0.00000E+00  0.00000E+00  0.00000E+00    0.10408E+03  0.13019E+03 -0.23427E+03 -0.77688E+01 -0.31357E+01  0.86044E+02      982.00
  0.72194E+00  0.38072E+03    0.41250E+00  0.41250E+00 -0.82500E+00  0.00000E+00  0.00000E+00  0.00000E+00    0.10493E+03  0.12970E+03 -0.23463E+03 -0.82250E+01 -0.33392E+01  0.82425E+02      982.00
  0.74505E+00  0.37917E+03    0.42500E+00  0.42500E+00 -0.85000E+00  0.00000E+00  0.00000E+00  0.00000E+00    0.10584E+03  0.12932E+03 -0.23515E+03 -0.87096E+01 -0.35730E+01  0.78903E+02      982.00
  0.76831E+00  0.37804E+03    0.43750E+00  0.43750E+00 -0.87500E+00  0.00000E+00  0.00000E+00  0.00000E+00    0.10680E+03  0.12904E+03 -0.23584E+03 -0.91952E+01 -0.38120E+01  0.75509E+02      982.00
  0.79170E+00  0.37727E+03    0.45000E+00  0.45000E+00 -0.90000E+00  0.00000E+00  0.00000E+00  0.00000E+00    0.10782E+03  0.12886E+03 -0.23668E+03 -0.97443E+01 -0.41038E+01  0.72180E+02      982.00
  0.81523E+00  0.37690E+03    0.46250E+00  0.46250E+00 -0.92500E+00  0.00000E+00  0.00000E+00  0.00000E+00    0.10892E+03  0.12877E+03 -0.23769E+03 -0.10331E+02 -0.44234E+01  0.68947E+02      982.00
  0.83888E+00  0.37690E+03    0.47500E+00  0.47500E+00 -0.95000E+00  0.00000E+00  0.00000E+00  0.00000E+00    0.11009E+03  0.12876E+03 -0.23885E+03 -0.10932E+02 -0.47539E+01  0.65826E+02      982.00
  0.86264E+00  0.37728E+03    0.48750E+00  0.48750E+00 -0.97500E+00  0.00000E+00  0.00000E+00  0.00000E+00    0.11135E+03  0.12884E+03 -0.24019E+03 -0.11575E+02 -0.51146E+01  0.62788E+02      982.00
  0.88652E+00  0.37805E+03    0.50000E+00  0.50000E+00 -0.10000E+01  0.00000E+00  0.00000E+00  0.00000E+00    0.11271E+03  0.12899E+03 -0.24170E+03 -0.12309E+02 -0.55272E+01  0.59833E+02      982.00
