          Evm          Svm            E11          E22          E33          E23          E13          E12         SDEV11       SDEV22       SDEV33       SDEV23       SDEV13       SDEV12      TEMP
  0.00000E+00  0.15658E+03    0.00000E+00  0.00000E+00  0.00000E+00  0.00000E+00  0.00000E+00  0.00000E+00    0.35272E+02  0.66321E+02 -0.10159E+03  0.10280E+01  0.16225E+01  0.13667E+02      982.00
  0.24331E-01  0.15835E+03    0.12500E-01  0.12500E-01 -0.25000E-01  0.00000E+00  0.00000E+00  0.00000E+00    0.33625E+02  0.68472E+02 -0.10210E+03  0.24526E+00  0.12553E+01  0.15321E+02      982.00
  0.48510E-01  0.16721E+03    0.25000E-01  0.25000E-01 -0.50000E-01  0.00000E+00  0.00000E+00  0.00000E+00    0.32084E+02  0.74509E+02 -0.10659E+03  0.45033E+00  0.13359E+01  0.18617E+02      982.00
  0.72415E-01  0.18610E+03    0.37500E-01  0.37500E-01 -0.75000E-01  0.00000E+00  0.00000E+00  0.00000E+00    0.30170E+02  0.86186E+02 -0.11636E+03  0.16158E+01  0.18430E+01  0.24499E+02      982.00
  0.95861E-01  0.21765E+03    0.50000E-01  0.50000E-01 -0.10000E+00  0.00000E+00  0.00000E+00  0.00000E+00    0.27222E+02  0.10502E+03 -0.13224E+03  0.35583E+01  0.26901E+01  0.33806E+02      982.00
  0.11864E+00  0.25755E+03    0.62500E-01  0.62500E-01 -0.12500E+00  0.00000E+00  0.00000E+00  0.00000E+00    0.23277E+02  0.12841E+03 -0.15169E+03  0.55135E+01  0.35768E+01  0.45226E+02      982.00
  0.14073E+00  0.29354E+03    0.75000E-01  0.75000E-01 -0.15000E+00  0.00000E+00  0.00000E+00  0.00000E+00    0.19707E+02  0.14929E+03 -0.16900E+03  0.69196E+01  0.42687E+01  0.55121E+02      982.00
  0.16232E+00  0.31991E+03    0.87500E-01  0.87500E-01 -0.17500E+00  0.00000E+00  0.00000E+00  0.00000E+00    0.17509E+02  0.16435E+03 -0.18186E+03  0.80062E+01  0.48248E+01  0.61891E+02      982.00
  0.18364E+00  0.34045E+03    0.10000E+00  0.10000E+00 -0.20000E+00  0.00000E+00  0.00000E+00  0.00000E+00    0.16169E+02  0.17596E+03 -0.19213E+03  0.87649E+01  0.52561E+01  0.66809E+02      982.00
  0.20480E+00  0.35770E+03    0.11250E+00  0.11250E+00 -0.22500E+00  0.00000E+00  0.00000E+00  0.00000E+00    0.15297E+02  0.18565E+03 -0.20095E+03  0.91390E+01  0.55607E+01  0.70669E+02      982.00
  0.22587E+00  0.37188E+03    0.12500E+00  0.12500E+00 -0.25000E+00  0.00000E+00  0.00000E+00  0.00000E+00    0.14841E+02  0.19358E+03 -0.20842E+03  0.91820E+01  0.57566E+01  0.73576E+02      982.00
  0.24689E+00  0.38297E+03    0.13750E+00  0.13750E+00 -0.27500E+00  0.00000E+00  0.00000E+00  0.00000E+00    0.14828E+02  0.19972E+03 -0.21455E+03  0.90109E+01  0.58798E+01  0.75529E+02      982.00
  0.26789E+00  0.39122E+03    0.15000E+00  0.15000E+00 -0.30000E+00  0.00000E+00  0.00000E+00  0.00000E+00    0.15252E+02  0.20419E+03 -0.21944E+03  0.87313E+01  0.59642E+01  0.76598E+02      982.00
  0.28893E+00  0.39664E+03    0.16250E+00  0.16250E+00 -0.32500E+00  0.00000E+00  0.00000E+00  0.00000E+00    0.16067E+02  0.20704E+03 -0.22310E+03  0.83998E+01  0.60140E+01  0.76722E+02      982.00
  0.31002E+00  0.40020E+03    0.17500E+00  0.17500E+00 -0.35000E+00  0.00000E+00  0.00000E+00  0.00000E+00    0.17325E+02  0.20868E+03 -0.22600E+03  0.81500E+01  0.61015E+01  0.76283E+02      982.00
  0.33120E+00  0.40222E+03    0.18750E+00  0.18750E+00 -0.37500E+00  0.00000E+00  0.00000E+00  0.00000E+00    0.18925E+02  0.20935E+03 -0.22827E+03  0.79471E+01  0.62004E+01  0.75370E+02      982.00
  0.35248E+00  0.40275E+03    0.20000E+00  0.20000E+00 -0.40000E+00  0.00000E+00  0.00000E+00  0.00000E+00    0.20793E+02  0.20912E+03 -0.22992E+03  0.78183E+01  0.63081E+01  0.73857E+02      982.00
  0.37389E+00  0.40222E+03    0.21250E+00  0.21250E+00 -0.42500E+00  0.00000E+00  0.00000E+00  0.00000E+00    0.22920E+02  0.20822E+03 -0.23114E+03  0.77920E+01  0.64388E+01  0.71923E+02      982.00
  0.39544E+00  0.40086E+03    0.22500E+00  0.22500E+00 -0.45000E+00  0.00000E+00  0.00000E+00  0.00000E+00    0.25302E+02  0.20674E+03 -0.23204E+03  0.79100E+01  0.66108E+01  0.69608E+02      982.00
  0.41714E+00  0.39895E+03    0.23750E+00  0.23750E+00 -0.47500E+00  0.00000E+00  0.00000E+00  0.00000E+00    0.27873E+02  0.20485E+03 -0.23273E+03  0.81411E+01  0.68046E+01  0.67004E+02      982.00
  0.43902E+00  0.39669E+03    0.25000E+00  0.25000E+00 -0.50000E+00  0.00000E+00  0.00000E+00  0.00000E+00    0.30597E+02  0.20268E+03 -0.23327E+03  0.84886E+01  0.70198E+01  0.64160E+02      982.00
  0.46107E+00  0.39429E+03    0.26250E+00  0.26250E+00 -0.52500E+00  0.00000E+00  0.00000E+00  0.00000E+00    0.33418E+02  0.20035E+03 -0.23377E+03  0.89075E+01  0.72309E+01  0.61141E+02      982.00
  0.48331E+00  0.39187E+03    0.27500E+00  0.27500E+00 -0.55000E+00  0.00000E+00  0.00000E+00  0.00000E+00    0.36322E+02  0.19793E+03 -0.23425E+03  0.94095E+01  0.74416E+01  0.57958E+02      982.00
  0.50572E+00  0.38824E+03    0.28750E+00  0.28750E+00 -0.57500E+00  0.00000E+00  0.00000E+00  0.00000E+00    0.39127E+02  0.19483E+03 -0.23396E+03  0.99171E+01  0.75397E+01  0.54542E+02      982.00
  0.52832E+00  0.38515E+03    0.30000E+00  0.30000E+00 -0.60000E+00  0.00000E+00  0.00000E+00  0.00000E+00    0.41835E+02  0.19204E+03 -0.23387E+03  0.10391E+02  0.75921E+01  0.51170E+02      982.00
  0.55109E+00  0.38260E+03    0.31250E+00  0.31250E+00 -0.62500E+00  0.00000E+00  0.00000E+00  0.00000E+00    0.44467E+02  0.18953E+03 -0.23400E+03  0.10845E+02  0.76066E+01  0.47869E+02      982.00
  0.57403E+00  0.38052E+03    0.32500E+00  0.32500E+00 -0.65000E+00  0.00000E+00  0.00000E+00  0.00000E+00    0.47059E+02  0.18725E+03 -0.23431E+03  0.11314E+02  0.76046E+01  0.44620E+02      982.00
  0.59712E+00  0.37888E+03    0.33750E+00  0.33750E+00 -0.67500E+00  0.00000E+00  0.00000E+00  0.00000E+00    0.49624E+02  0.18517E+03 -0.23479E+03  0.11815E+02  0.76018E+01  0.41400E+02      982.00
  0.62036E+00  0.37768E+03    0.35000E+00  0.35000E+00 -0.70000E+00  0.00000E+00  0.00000E+00  0.00000E+00    0.52219E+02  0.18323E+03 -0.23545E+03  0.12315E+02  0.75991E+01  0.38324E+02      982.00
  0.64373E+00  0.37689E+03    0.36250E+00  0.36250E+00 -0.72500E+00  0.00000E+00  0.00000E+00  0.00000E+00    0.54866E+02  0.18141E+03 -0.23628E+03  0.12830E+02  0.76144E+01  0.35378E+02      982.00
  0.66724E+00  0.37653E+03    0.37500E+00  0.37500E+00 -0.75000E+00  0.00000E+00  0.00000E+00  0.00000E+00    0.57585E+02  0.17970E+03 -0.23729E+03  0.13366E+02  0.76615E+01  0.32589E+02      982.00
  0.69088E+00  0.37653E+03    0.38750E+00  0.38750E+00 -0.77500E+00  0.00000E+00  0.00000E+00  0.00000E+00    0.60384E+02  0.17807E+03 -0.23845E+03  0.13920E+02  0.77389E+01  0.29957E+02      982.00
  0.71462E+00  0.37689E+03    0.40000E+00  0.40000E+00 -0.80000E+00  0.00000E+00  0.00000E+00  0.00000E+00    0.63277E+02  0.17649E+03 -0.23977E+03  0.14533E+02  0.78617E+01  0.27481E+02      982.00
  0.73848E+00  0.37759E+03    0.41250E+00  0.41250E+00 -0.82500E+00  0.00000E+00  0.00000E+00  0.00000E+00    0.66242E+02  0.17498E+03 -0.24122E+03  0.15100E+02  0.79891E+01  0.25193E+02      982.00
  0.76244E+00  0.37868E+03    0.42500E+00  0.42500E+00 -0.85000E+00  0.00000E+00  0.00000E+00  0.00000E+00    0.69287E+02  0.17357E+03 -0.24286E+03  0.15761E+02  0.81683E+01  0.23041E+02      982.00
  0.78649E+00  0.38011E+03    0.43750E+00  0.43750E+00 -0.87500E+00  0.00000E+00  0.00000E+00  0.00000E+00    0.72396E+02  0.17224E+03 -0.24464E+03  0.16480E+02  0.83760E+01  0.21031E+02      982.00
  0.81062E+00  0.38178E+03    0.45000E+00  0.45000E+00 -0.90000E+00  0.00000E+00  0.00000E+00  0.00000E+00    0.75540E+02  0.17097E+03 -0.24651E+03  0.17151E+02  0.85718E+01  0.19176E+02      982.00
  0.83483E+00  0.38374E+03    0.46250E+00  0.46250E+00 -0.92500E+00  0.00000E+00  0.00000E+00  0.00000E+00    0.78708E+02  0.16978E+03 -0.24849E+03  0.17881E+02  0.87864E+01  0.17450E+02      982.00
  0.85912E+00  0.38589E+03    0.47500E+00  0.47500E+00 -0.95000E+00  0.00000E+00  0.00000E+00  0.00000E+00    0.81852E+02  0.16868E+03 -0.25054E+03  0.18526E+02  0.89685E+01  0.15872E+02      982.00
  0.88346E+00  0.38820E+03    0.48750E+00  0.48750E+00 -0.97500E+00  0.00000E+00  0.00000E+00  0.00000E+00    0.84967E+02  0.16766E+03 -0.25263E+03  0.19145E+02  0.91320E+01  0.14422E+02      982.00
  0.90787E+00  0.39061E+03    0.50000E+00  0.50000E+00 -0.10000E+01  0.00000E+00  0.00000E+00  0.00000E+00    0.88013E+02  0.16672E+03 -0.25473E+03  0.19672E+02  0.92535E+01  0.13090E+02      982.00
