          Evm          Svm            E11          E22          E33          E23          E13          E12         SDEV11       SDEV22       SDEV33       SDEV23       SDEV13       SDEV12      TEMP
  0.00000E+00  0.18484E+03    0.00000E+00  0.00000E+00  0.00000E+00  0.00000E+00  0.00000E+00  0.00000E+00    0.56082E+02  0.66112E+02 -0.12219E+03  0.37702E+01  0.60434E+01  0.10709E+02      982.00
  0.24790E-01  0.18711E+03    0.12500E-01  0.12500E-01 -0.25000E-01  0.00000E+00  0.00000E+00  0.00000E+00    0.60161E+02  0.63550E+02 -0.12371E+03  0.33820E+01  0.60654E+01  0.11843E+02      982.00
  0.49584E-01  0.18866E+03    0.25000E-01  0.25000E-01 -0.50000E-01  0.00000E+00  0.00000E+00  0.00000E+00    0.63965E+02  0.60684E+02 -0.12465E+03  0.28049E+01  0.60551E+01  0.12798E+02      982.00
  0.74361E-01  0.19143E+03    0.37500E-01  0.37500E-01 -0.75000E-01  0.00000E+00  0.00000E+00  0.00000E+00    0.66801E+02  0.59474E+02 -0.12627E+03  0.23996E+01  0.55247E+01  0.14391E+02      982.00
  0.99097E-01  0.19881E+03    0.50000E-01  0.50000E-01 -0.10000E+00  0.00000E+00  0.00000E+00  0.00000E+00    0.70551E+02  0.60213E+02 -0.13076E+03  0.23266E+01  0.49837E+01  0.17143E+02      982.00
  0.12376E+00  0.21183E+03    0.62500E-01  0.62500E-01 -0.12500E+00  0.00000E+00  0.00000E+00  0.00000E+00    0.75973E+02  0.62737E+02 -0.13871E+03  0.24960E+01  0.46942E+01  0.21315E+02      982.00
  0.14832E+00  0.23021E+03    0.75000E-01  0.75000E-01 -0.15000E+00  0.00000E+00  0.00000E+00  0.00000E+00    0.83123E+02  0.66779E+02 -0.14990E+03  0.28320E+01  0.46687E+01  0.26755E+02      982.00
  0.17274E+00  0.25205E+03    0.87500E-01  0.87500E-01 -0.17500E+00  0.00000E+00  0.00000E+00  0.00000E+00    0.91387E+02  0.71784E+02 -0.16317E+03  0.32751E+01  0.48335E+01  0.32828E+02      982.00
  0.19701E+00  0.27430E+03    0.10000E+00  0.10000E+00 -0.20000E+00  0.00000E+00  0.00000E+00  0.00000E+00    0.99715E+02  0.77025E+02 -0.17674E+03  0.37784E+01  0.51043E+01  0.38513E+02      982.00
  0.22118E+00  0.29443E+03    0.11250E+00  0.11250E+00 -0.22500E+00  0.00000E+00  0.00000E+00  0.00000E+00    0.10721E+03  0.81925E+02 -0.18913E+03  0.42768E+01  0.54044E+01  0.43140E+02      982.00
  0.24526E+00  0.31161E+03    0.12500E+00  0.12500E+00 -0.25000E+00  0.00000E+00  0.00000E+00  0.00000E+00    0.11362E+03  0.86304E+02 -0.19992E+03  0.48140E+01  0.57556E+01  0.46327E+02      982.00
  0.26932E+00  0.32580E+03    0.13750E+00  0.13750E+00 -0.27500E+00  0.00000E+00  0.00000E+00  0.00000E+00    0.11891E+03  0.90149E+02 -0.20905E+03  0.53381E+01  0.61226E+01  0.48294E+02      982.00
  0.29339E+00  0.33756E+03    0.15000E+00  0.15000E+00 -0.30000E+00  0.00000E+00  0.00000E+00  0.00000E+00    0.12326E+03  0.93551E+02 -0.21681E+03  0.58435E+01  0.65121E+01  0.49290E+02      982.00
  0.31747E+00  0.34741E+03    0.16250E+00  0.16250E+00 -0.32500E+00  0.00000E+00  0.00000E+00  0.00000E+00    0.12686E+03  0.96685E+02 -0.22354E+03  0.63846E+01  0.69416E+01  0.49363E+02      982.00
  0.34160E+00  0.35578E+03    0.17500E+00  0.17500E+00 -0.35000E+00  0.00000E+00  0.00000E+00  0.00000E+00    0.12984E+03  0.99611E+02 -0.22945E+03  0.69479E+01  0.74140E+01  0.48752E+02      982.00
  0.36579E+00  0.36274E+03    0.18750E+00  0.18750E+00 -0.37500E+00  0.00000E+00  0.00000E+00  0.00000E+00    0.13220E+03  0.10231E+03 -0.23452E+03  0.74850E+01  0.78773E+01  0.47642E+02      982.00
  0.39003E+00  0.36898E+03    0.20000E+00  0.20000E+00 -0.40000E+00  0.00000E+00  0.00000E+00  0.00000E+00    0.13423E+03  0.10493E+03 -0.23916E+03  0.79496E+01  0.83305E+01  0.46226E+02      982.00
  0.41434E+00  0.37488E+03    0.21250E+00  0.21250E+00 -0.42500E+00  0.00000E+00  0.00000E+00  0.00000E+00    0.13609E+03  0.10752E+03 -0.24361E+03  0.84580E+01  0.88384E+01  0.44514E+02      982.00
  0.43870E+00  0.38049E+03    0.22500E+00  0.22500E+00 -0.45000E+00  0.00000E+00  0.00000E+00  0.00000E+00    0.13780E+03  0.11008E+03 -0.24788E+03  0.89556E+01  0.93620E+01  0.42603E+02      982.00
  0.46313E+00  0.38216E+03    0.23750E+00  0.23750E+00 -0.47500E+00  0.00000E+00  0.00000E+00  0.00000E+00    0.13802E+03  0.11153E+03 -0.24955E+03  0.90350E+01  0.94839E+01  0.40386E+02      982.00
  0.48762E+00  0.38425E+03    0.25000E+00  0.25000E+00 -0.50000E+00  0.00000E+00  0.00000E+00  0.00000E+00    0.13839E+03  0.11304E+03 -0.25143E+03  0.91517E+01  0.96159E+01  0.38299E+02      982.00
  0.51216E+00  0.38655E+03    0.26250E+00  0.26250E+00 -0.52500E+00  0.00000E+00  0.00000E+00  0.00000E+00    0.13885E+03  0.11457E+03 -0.25342E+03  0.93200E+01  0.97639E+01  0.36216E+02      982.00
  0.53674E+00  0.38899E+03    0.27500E+00  0.27500E+00 -0.55000E+00  0.00000E+00  0.00000E+00  0.00000E+00    0.13934E+03  0.11610E+03 -0.25544E+03  0.94008E+01  0.98615E+01  0.34337E+02      982.00
  0.56137E+00  0.39155E+03    0.28750E+00  0.28750E+00 -0.57500E+00  0.00000E+00  0.00000E+00  0.00000E+00    0.13988E+03  0.11763E+03 -0.25750E+03  0.94679E+01  0.99452E+01  0.32551E+02      982.00
  0.58603E+00  0.39421E+03    0.30000E+00  0.30000E+00 -0.60000E+00  0.00000E+00  0.00000E+00  0.00000E+00    0.14046E+03  0.11915E+03 -0.25960E+03  0.95228E+01  0.10016E+02  0.30855E+02      982.00
  0.61073E+00  0.39697E+03    0.31250E+00  0.31250E+00 -0.62500E+00  0.00000E+00  0.00000E+00  0.00000E+00    0.14107E+03  0.12065E+03 -0.26173E+03  0.95660E+01  0.10073E+02  0.29246E+02      982.00
  0.63545E+00  0.39980E+03    0.32500E+00  0.32500E+00 -0.65000E+00  0.00000E+00  0.00000E+00  0.00000E+00    0.14172E+03  0.12215E+03 -0.26387E+03  0.95982E+01  0.10118E+02  0.27719E+02      982.00
  0.66020E+00  0.40259E+03    0.33750E+00  0.33750E+00 -0.67500E+00  0.00000E+00  0.00000E+00  0.00000E+00    0.14237E+03  0.12359E+03 -0.26596E+03  0.96231E+01  0.10142E+02  0.26281E+02      982.00
  0.68497E+00  0.40549E+03    0.35000E+00  0.35000E+00 -0.70000E+00  0.00000E+00  0.00000E+00  0.00000E+00    0.14307E+03  0.12504E+03 -0.26810E+03  0.96431E+01  0.10172E+02  0.24903E+02      982.00
  0.70977E+00  0.40843E+03    0.36250E+00  0.36250E+00 -0.72500E+00  0.00000E+00  0.00000E+00  0.00000E+00    0.14379E+03  0.12646E+03 -0.27025E+03  0.96450E+01  0.10182E+02  0.23609E+02      982.00
  0.73458E+00  0.41136E+03    0.37500E+00  0.37500E+00 -0.75000E+00  0.00000E+00  0.00000E+00  0.00000E+00    0.14453E+03  0.12785E+03 -0.27237E+03  0.96383E+01  0.10182E+02  0.22386E+02      982.00
  0.75941E+00  0.41429E+03    0.38750E+00  0.38750E+00 -0.77500E+00  0.00000E+00  0.00000E+00  0.00000E+00    0.14528E+03  0.12920E+03 -0.27447E+03  0.96240E+01  0.10173E+02  0.21231E+02      982.00
  0.78426E+00  0.41720E+03    0.40000E+00  0.40000E+00 -0.80000E+00  0.00000E+00  0.00000E+00  0.00000E+00    0.14603E+03  0.13051E+03 -0.27655E+03  0.96026E+01  0.10155E+02  0.20141E+02      982.00
  0.80911E+00  0.42008E+03    0.41250E+00  0.41250E+00 -0.82500E+00  0.00000E+00  0.00000E+00  0.00000E+00    0.14680E+03  0.13178E+03 -0.27858E+03  0.95747E+01  0.10129E+02  0.19112E+02      982.00
  0.83398E+00  0.42292E+03    0.42500E+00  0.42500E+00 -0.85000E+00  0.00000E+00  0.00000E+00  0.00000E+00    0.14757E+03  0.13301E+03 -0.28058E+03  0.95410E+01  0.10097E+02  0.18141E+02      982.00
  0.85886E+00  0.42570E+03    0.43750E+00  0.43750E+00 -0.87500E+00  0.00000E+00  0.00000E+00  0.00000E+00    0.14834E+03  0.13419E+03 -0.28254E+03  0.95016E+01  0.10058E+02  0.17225E+02      982.00
  0.88375E+00  0.42843E+03    0.45000E+00  0.45000E+00 -0.90000E+00  0.00000E+00  0.00000E+00  0.00000E+00    0.14912E+03  0.13532E+03 -0.28444E+03  0.94575E+01  0.10013E+02  0.16362E+02      982.00
  0.90865E+00  0.43110E+03    0.46250E+00  0.46250E+00 -0.92500E+00  0.00000E+00  0.00000E+00  0.00000E+00    0.14989E+03  0.13640E+03 -0.28630E+03  0.94094E+01  0.99643E+01  0.15547E+02      982.00
  0.93355E+00  0.43370E+03    0.47500E+00  0.47500E+00 -0.95000E+00  0.00000E+00  0.00000E+00  0.00000E+00    0.15067E+03  0.13743E+03 -0.28810E+03  0.93574E+01  0.99116E+01  0.14778E+02      982.00
  0.95846E+00  0.43623E+03    0.48750E+00  0.48750E+00 -0.97500E+00  0.00000E+00  0.00000E+00  0.00000E+00    0.15145E+03  0.13840E+03 -0.28985E+03  0.93020E+01  0.98558E+01  0.14051E+02      982.00
  0.98338E+00  0.43869E+03    0.50000E+00  0.50000E+00 -0.10000E+01  0.00000E+00  0.00000E+00  0.00000E+00    0.15223E+03  0.13931E+03 -0.29154E+03  0.92436E+01  0.97979E+01  0.13364E+02      982.00
