          Evm          Svm            E11          E22          E33          E23          E13          E12         SDEV11       SDEV22       SDEV33       SDEV23       SDEV13       SDEV12      TEMP
  0.00000E+00  0.15741E+03    0.00000E+00  0.00000E+00  0.00000E+00  0.00000E+00  0.00000E+00  0.00000E+00    0.48259E+02  0.49485E+02 -0.97744E+02  0.30203E-01 -0.20494E+01  0.33009E+02      982.00
  0.23285E-01  0.16000E+03    0.12500E-01  0.12500E-01 -0.25000E-01  0.00000E+00  0.00000E+00  0.00000E+00    0.48961E+02  0.49522E+02 -0.98483E+02 -0.57026E-01 -0.15854E+01  0.35443E+02      982.00
  0.46368E-01  0.16583E+03    0.25000E-01  0.25000E-01 -0.50000E-01  0.00000E+00  0.00000E+00  0.00000E+00    0.50261E+02  0.50369E+02 -0.10063E+03 -0.17356E+00 -0.12756E+01  0.39626E+02      982.00
  0.69124E-01  0.17591E+03    0.37500E-01  0.37500E-01 -0.75000E-01  0.00000E+00  0.00000E+00  0.00000E+00    0.52377E+02  0.52155E+02 -0.10453E+03 -0.27668E+00 -0.11068E+01  0.46030E+02      982.00
  0.91407E-01  0.19182E+03    0.50000E-01  0.50000E-01 -0.10000E+00  0.00000E+00  0.00000E+00  0.00000E+00    0.55605E+02  0.55106E+02 -0.11071E+03 -0.35368E+00 -0.10567E+01  0.55418E+02      982.00
  0.11305E+00  0.21568E+03    0.62500E-01  0.62500E-01 -0.12500E+00  0.00000E+00  0.00000E+00  0.00000E+00    0.60293E+02  0.59549E+02 -0.11984E+03 -0.40891E+00 -0.11217E+01  0.68798E+02      982.00
  0.13389E+00  0.24981E+03    0.75000E-01  0.75000E-01 -0.15000E+00  0.00000E+00  0.00000E+00  0.00000E+00    0.66777E+02  0.65828E+02 -0.13261E+03 -0.45827E+00 -0.12900E+01  0.87242E+02      982.00
  0.15379E+00  0.29475E+03    0.87500E-01  0.87500E-01 -0.17500E+00  0.00000E+00  0.00000E+00  0.00000E+00    0.75017E+02  0.74010E+02 -0.14903E+03 -0.51550E+00 -0.15438E+01  0.11091E+03      982.00
  0.17275E+00  0.34531E+03    0.10000E+00  0.10000E+00 -0.20000E+00  0.00000E+00  0.00000E+00  0.00000E+00    0.83928E+02  0.83257E+02 -0.16718E+03 -0.56941E+00 -0.18571E+01  0.13704E+03      982.00
  0.19091E+00  0.39221E+03    0.11250E+00  0.11250E+00 -0.22500E+00  0.00000E+00  0.00000E+00  0.00000E+00    0.91831E+02  0.92063E+02 -0.18389E+03 -0.59749E+00 -0.21875E+01  0.16096E+03      982.00
  0.20849E+00  0.43038E+03    0.12500E+00  0.12500E+00 -0.25000E+00  0.00000E+00  0.00000E+00  0.00000E+00    0.97973E+02  0.99521E+02 -0.19749E+03 -0.59591E+00 -0.24953E+01  0.18023E+03      982.00
  0.22570E+00  0.45948E+03    0.13750E+00  0.13750E+00 -0.27500E+00  0.00000E+00  0.00000E+00  0.00000E+00    0.10251E+03  0.10542E+03 -0.20792E+03 -0.57391E+00 -0.27530E+01  0.19478E+03      982.00
  0.24267E+00  0.48218E+03    0.15000E+00  0.15000E+00 -0.30000E+00  0.00000E+00  0.00000E+00  0.00000E+00    0.10595E+03  0.11016E+03 -0.21611E+03 -0.55093E+00 -0.29676E+01  0.20605E+03      982.00
  0.25948E+00  0.49976E+03    0.16250E+00  0.16250E+00 -0.32500E+00  0.00000E+00  0.00000E+00  0.00000E+00    0.10858E+03  0.11392E+03 -0.22250E+03 -0.53085E+00 -0.31382E+01  0.21473E+03      982.00
  0.27617E+00  0.51357E+03    0.17500E+00  0.17500E+00 -0.35000E+00  0.00000E+00  0.00000E+00  0.00000E+00    0.11065E+03  0.11691E+03 -0.22756E+03 -0.51662E+00 -0.32693E+01  0.22149E+03      982.00
  0.29279E+00  0.52458E+03    0.18750E+00  0.18750E+00 -0.37500E+00  0.00000E+00  0.00000E+00  0.00000E+00    0.11232E+03  0.11931E+03 -0.23163E+03 -0.50905E+00 -0.33673E+01  0.22686E+03      982.00
  0.30935E+00  0.53406E+03    0.20000E+00  0.20000E+00 -0.40000E+00  0.00000E+00  0.00000E+00  0.00000E+00    0.11372E+03  0.12142E+03 -0.23514E+03 -0.50824E+00 -0.34430E+01  0.23147E+03      982.00
  0.32586E+00  0.54081E+03    0.21250E+00  0.21250E+00 -0.42500E+00  0.00000E+00  0.00000E+00  0.00000E+00    0.11484E+03  0.12285E+03 -0.23769E+03 -0.50937E+00 -0.34877E+01  0.23471E+03      982.00
  0.34234E+00  0.54762E+03    0.22500E+00  0.22500E+00 -0.45000E+00  0.00000E+00  0.00000E+00  0.00000E+00    0.11584E+03  0.12435E+03 -0.24020E+03 -0.51954E+00 -0.35211E+01  0.23804E+03      982.00
  0.35879E+00  0.55253E+03    0.23750E+00  0.23750E+00 -0.47500E+00  0.00000E+00  0.00000E+00  0.00000E+00    0.11665E+03  0.12542E+03 -0.24208E+03 -0.52621E+00 -0.35371E+01  0.24037E+03      982.00
  0.37522E+00  0.55674E+03    0.25000E+00  0.25000E+00 -0.50000E+00  0.00000E+00  0.00000E+00  0.00000E+00    0.11739E+03  0.12631E+03 -0.24369E+03 -0.53469E+00 -0.35416E+01  0.24238E+03      982.00
  0.39163E+00  0.56037E+03    0.26250E+00  0.26250E+00 -0.52500E+00  0.00000E+00  0.00000E+00  0.00000E+00    0.11804E+03  0.12705E+03 -0.24509E+03 -0.54379E+00 -0.35368E+01  0.24410E+03      982.00
  0.40803E+00  0.56362E+03    0.27500E+00  0.27500E+00 -0.55000E+00  0.00000E+00  0.00000E+00  0.00000E+00    0.11861E+03  0.12770E+03 -0.24632E+03 -0.55054E+00 -0.35269E+01  0.24567E+03      982.00
  0.42442E+00  0.56632E+03    0.28750E+00  0.28750E+00 -0.57500E+00  0.00000E+00  0.00000E+00  0.00000E+00    0.11913E+03  0.12824E+03 -0.24737E+03 -0.55904E+00 -0.35085E+01  0.24694E+03      982.00
  0.44080E+00  0.56931E+03    0.30000E+00  0.30000E+00 -0.60000E+00  0.00000E+00  0.00000E+00  0.00000E+00    0.11969E+03  0.12880E+03 -0.24849E+03 -0.56843E+00 -0.34915E+01  0.24838E+03      982.00
  0.45717E+00  0.56847E+03    0.31250E+00  0.31250E+00 -0.62500E+00  0.00000E+00  0.00000E+00  0.00000E+00    0.11982E+03  0.12842E+03 -0.24825E+03 -0.56647E+00 -0.33739E+01  0.24793E+03      982.00
  0.47354E+00  0.56875E+03    0.32500E+00  0.32500E+00 -0.65000E+00  0.00000E+00  0.00000E+00  0.00000E+00    0.12004E+03  0.12830E+03 -0.24834E+03 -0.56903E+00 -0.33257E+01  0.24807E+03      982.00
  0.48992E+00  0.56879E+03    0.33750E+00  0.33750E+00 -0.67500E+00  0.00000E+00  0.00000E+00  0.00000E+00    0.12013E+03  0.12823E+03 -0.24836E+03 -0.57144E+00 -0.33109E+01  0.24809E+03      982.00
  0.50629E+00  0.56879E+03    0.35000E+00  0.35000E+00 -0.70000E+00  0.00000E+00  0.00000E+00  0.00000E+00    0.12021E+03  0.12815E+03 -0.24836E+03 -0.57480E+00 -0.32520E+01  0.24810E+03      982.00
  0.52267E+00  0.56880E+03    0.36250E+00  0.36250E+00 -0.72500E+00  0.00000E+00  0.00000E+00  0.00000E+00    0.12029E+03  0.12808E+03 -0.24837E+03 -0.57847E+00 -0.31945E+01  0.24810E+03      982.00
  0.53904E+00  0.56881E+03    0.37500E+00  0.37500E+00 -0.75000E+00  0.00000E+00  0.00000E+00  0.00000E+00    0.12036E+03  0.12801E+03 -0.24837E+03 -0.58113E+00 -0.31391E+01  0.24811E+03      982.00
  0.55542E+00  0.56887E+03    0.38750E+00  0.38750E+00 -0.77500E+00  0.00000E+00  0.00000E+00  0.00000E+00    0.12031E+03  0.12809E+03 -0.24839E+03 -0.56878E+00 -0.31008E+01  0.24814E+03      982.00
  0.57179E+00  0.56881E+03    0.40000E+00  0.40000E+00 -0.80000E+00  0.00000E+00  0.00000E+00  0.00000E+00    0.12055E+03  0.12783E+03 -0.24838E+03 -0.58498E+00 -0.30488E+01  0.24811E+03      982.00
  0.58816E+00  0.56888E+03    0.41250E+00  0.41250E+00 -0.82500E+00  0.00000E+00  0.00000E+00  0.00000E+00    0.12049E+03  0.12791E+03 -0.24840E+03 -0.57507E+00 -0.30076E+01  0.24814E+03      982.00
  0.60454E+00  0.56883E+03    0.42500E+00  0.42500E+00 -0.85000E+00  0.00000E+00  0.00000E+00  0.00000E+00    0.12070E+03  0.12769E+03 -0.24839E+03 -0.58700E+00 -0.29540E+01  0.24812E+03      982.00
  0.62091E+00  0.56892E+03    0.43750E+00  0.43750E+00 -0.87500E+00  0.00000E+00  0.00000E+00  0.00000E+00    0.12065E+03  0.12778E+03 -0.24842E+03 -0.57639E+00 -0.29171E+01  0.24816E+03      982.00
  0.63729E+00  0.56886E+03    0.45000E+00  0.45000E+00 -0.90000E+00  0.00000E+00  0.00000E+00  0.00000E+00    0.12085E+03  0.12755E+03 -0.24840E+03 -0.58609E+00 -0.28651E+01  0.24814E+03      982.00
  0.65366E+00  0.56896E+03    0.46250E+00  0.46250E+00 -0.92500E+00  0.00000E+00  0.00000E+00  0.00000E+00    0.12079E+03  0.12765E+03 -0.24844E+03 -0.57498E+00 -0.28320E+01  0.24818E+03      982.00
  0.67004E+00  0.56890E+03    0.47500E+00  0.47500E+00 -0.95000E+00  0.00000E+00  0.00000E+00  0.00000E+00    0.12099E+03  0.12742E+03 -0.24841E+03 -0.58268E+00 -0.27815E+01  0.24815E+03      982.00
  0.68641E+00  0.56900E+03    0.48750E+00  0.48750E+00 -0.97500E+00  0.00000E+00  0.00000E+00  0.00000E+00    0.12094E+03  0.12752E+03 -0.24846E+03 -0.57134E+00 -0.27520E+01  0.24820E+03      982.00
  0.70279E+00  0.56893E+03    0.50000E+00  0.50000E+00 -0.10000E+01  0.00000E+00  0.00000E+00  0.00000E+00    0.12113E+03  0.12730E+03 -0.24843E+03 -0.57722E+00 -0.27030E+01  0.24817E+03      982.00
