          Evm          Svm            E11          E22          E33          E23          E13          E12         SDEV11       SDEV22       SDEV33       SDEV23       SDEV13       SDEV12      TEMP
  0.00000E+00  0.14850E+03    0.00000E+00  0.00000E+00  0.00000E+00  0.00000E+00  0.00000E+00  0.00000E+00    0.41545E+02  0.55107E+02 -0.96652E+02  0.81003E+01  0.77915E+01  0.13118E+02      982.00
  0.24407E-01  0.14610E+03    0.12500E-01  0.12500E-01 -0.25000E-01  0.00000E+00  0.00000E+00  0.00000E+00    0.40910E+02  0.54078E+02 -0.94987E+02  0.77323E+01  0.67756E+01  0.14103E+02      982.00
  0.48788E-01  0.14766E+03    0.25000E-01  0.25000E-01 -0.50000E-01  0.00000E+00  0.00000E+00  0.00000E+00    0.41778E+02  0.53899E+02 -0.95678E+02  0.77344E+01  0.63701E+01  0.16275E+02      982.00
  0.73087E-01  0.15391E+03    0.37500E-01  0.37500E-01 -0.75000E-01  0.00000E+00  0.00000E+00  0.00000E+00    0.44483E+02  0.54589E+02 -0.99073E+02  0.80301E+01  0.64746E+01  0.20075E+02      982.00
  0.97226E-01  0.16591E+03    0.50000E-01  0.50000E-01 -0.10000E+00  0.00000E+00  0.00000E+00  0.00000E+00    0.49438E+02  0.56137E+02 -0.10558E+03  0.85685E+01  0.69940E+01  0.26115E+02      982.00
  0.12109E+00  0.18530E+03    0.62500E-01  0.62500E-01 -0.12500E+00  0.00000E+00  0.00000E+00  0.00000E+00    0.57196E+02  0.58593E+02 -0.11579E+03  0.93229E+01  0.78622E+01  0.35232E+02      982.00
  0.14452E+00  0.21386E+03    0.75000E-01  0.75000E-01 -0.15000E+00  0.00000E+00  0.00000E+00  0.00000E+00    0.68218E+02  0.61991E+02 -0.13021E+03  0.10242E+02  0.89696E+01  0.48308E+02      982.00
  0.16735E+00  0.25123E+03    0.87500E-01  0.87500E-01 -0.17500E+00  0.00000E+00  0.00000E+00  0.00000E+00    0.82072E+02  0.66265E+02 -0.14834E+03  0.11157E+02  0.10080E+02  0.65175E+02      982.00
  0.18949E+00  0.29249E+03    0.10000E+00  0.10000E+00 -0.20000E+00  0.00000E+00  0.00000E+00  0.00000E+00    0.96658E+02  0.71076E+02 -0.16773E+03  0.11785E+02  0.10856E+02  0.83641E+02      982.00
  0.21100E+00  0.33021E+03    0.11250E+00  0.11250E+00 -0.22500E+00  0.00000E+00  0.00000E+00  0.00000E+00    0.10929E+03  0.75912E+02 -0.18520E+03  0.11964E+02  0.11126E+02  0.10038E+03      982.00
  0.23203E+00  0.36073E+03    0.12500E+00  0.12500E+00 -0.25000E+00  0.00000E+00  0.00000E+00  0.00000E+00    0.11897E+03  0.80366E+02 -0.19934E+03  0.11775E+02  0.10985E+02  0.11376E+03      982.00
  0.25275E+00  0.38424E+03    0.13750E+00  0.13750E+00 -0.27500E+00  0.00000E+00  0.00000E+00  0.00000E+00    0.12612E+03  0.84252E+02 -0.21037E+03  0.11351E+02  0.10579E+02  0.12386E+03      982.00
  0.27329E+00  0.40218E+03    0.15000E+00  0.15000E+00 -0.30000E+00  0.00000E+00  0.00000E+00  0.00000E+00    0.13147E+03  0.87531E+02 -0.21900E+03  0.10744E+02  0.99797E+01  0.13133E+03      982.00
  0.29371E+00  0.41612E+03    0.16250E+00  0.16250E+00 -0.32500E+00  0.00000E+00  0.00000E+00  0.00000E+00    0.13569E+03  0.90237E+02 -0.22593E+03  0.99270E+01  0.91741E+01  0.13689E+03      982.00
  0.31407E+00  0.42733E+03    0.17500E+00  0.17500E+00 -0.35000E+00  0.00000E+00  0.00000E+00  0.00000E+00    0.13931E+03  0.92369E+02 -0.23168E+03  0.88134E+01  0.80805E+01  0.14114E+03      982.00
  0.33440E+00  0.43604E+03    0.18750E+00  0.18750E+00 -0.37500E+00  0.00000E+00  0.00000E+00  0.00000E+00    0.14263E+03  0.93724E+02 -0.23635E+03  0.73792E+01  0.66481E+01  0.14416E+03      982.00
  0.35472E+00  0.44047E+03    0.20000E+00  0.20000E+00 -0.40000E+00  0.00000E+00  0.00000E+00  0.00000E+00    0.14511E+03  0.94117E+02 -0.23923E+03  0.60619E+01  0.53313E+01  0.14503E+03      982.00
  0.37509E+00  0.44045E+03    0.21250E+00  0.21250E+00 -0.42500E+00  0.00000E+00  0.00000E+00  0.00000E+00    0.14610E+03  0.94253E+02 -0.24035E+03  0.53028E+01  0.46788E+01  0.14359E+03      982.00
  0.39555E+00  0.43852E+03    0.22500E+00  0.22500E+00 -0.45000E+00  0.00000E+00  0.00000E+00  0.00000E+00    0.14618E+03  0.94557E+02 -0.24074E+03  0.47754E+01  0.44137E+01  0.14116E+03      982.00
  0.41614E+00  0.43636E+03    0.23750E+00  0.23750E+00 -0.47500E+00  0.00000E+00  0.00000E+00  0.00000E+00    0.14597E+03  0.95076E+02 -0.24105E+03  0.42425E+01  0.42058E+01  0.13859E+03      982.00
  0.43686E+00  0.43358E+03    0.25000E+00  0.25000E+00 -0.50000E+00  0.00000E+00  0.00000E+00  0.00000E+00    0.14554E+03  0.95623E+02 -0.24116E+03  0.38032E+01  0.40973E+01  0.13561E+03      982.00
  0.45771E+00  0.42866E+03    0.26250E+00  0.26250E+00 -0.52500E+00  0.00000E+00  0.00000E+00  0.00000E+00    0.14424E+03  0.96027E+02 -0.24027E+03  0.35134E+01  0.41179E+01  0.13169E+03      982.00
  0.47873E+00  0.42362E+03    0.27500E+00  0.27500E+00 -0.55000E+00  0.00000E+00  0.00000E+00  0.00000E+00    0.14285E+03  0.96508E+02 -0.23936E+03  0.32792E+01  0.42384E+01  0.12760E+03      982.00
  0.49992E+00  0.41858E+03    0.28750E+00  0.28750E+00 -0.57500E+00  0.00000E+00  0.00000E+00  0.00000E+00    0.14147E+03  0.96997E+02 -0.23846E+03  0.30899E+01  0.44215E+01  0.12342E+03      982.00
  0.52129E+00  0.41360E+03    0.30000E+00  0.30000E+00 -0.60000E+00  0.00000E+00  0.00000E+00  0.00000E+00    0.14001E+03  0.97585E+02 -0.23760E+03  0.29357E+01  0.46502E+01  0.11917E+03      982.00
  0.54283E+00  0.40877E+03    0.31250E+00  0.31250E+00 -0.62500E+00  0.00000E+00  0.00000E+00  0.00000E+00    0.13860E+03  0.98196E+02 -0.23680E+03  0.28303E+01  0.49364E+01  0.11491E+03      982.00
  0.56455E+00  0.40416E+03    0.32500E+00  0.32500E+00 -0.65000E+00  0.00000E+00  0.00000E+00  0.00000E+00    0.13724E+03  0.98843E+02 -0.23608E+03  0.27618E+01  0.52348E+01  0.11066E+03      982.00
  0.58646E+00  0.39981E+03    0.33750E+00  0.33750E+00 -0.67500E+00  0.00000E+00  0.00000E+00  0.00000E+00    0.13590E+03  0.99575E+02 -0.23547E+03  0.27475E+01  0.55831E+01  0.10643E+03      982.00
  0.60854E+00  0.39581E+03    0.35000E+00  0.35000E+00 -0.70000E+00  0.00000E+00  0.00000E+00  0.00000E+00    0.13474E+03  0.10027E+03 -0.23501E+03  0.27603E+01  0.59136E+01  0.10229E+03      982.00
  0.63081E+00  0.39220E+03    0.36250E+00  0.36250E+00 -0.72500E+00  0.00000E+00  0.00000E+00  0.00000E+00    0.13373E+03  0.10096E+03 -0.23469E+03  0.28025E+01  0.62457E+01  0.98225E+02      982.00
  0.65325E+00  0.38890E+03    0.37500E+00  0.37500E+00 -0.75000E+00  0.00000E+00  0.00000E+00  0.00000E+00    0.13276E+03  0.10175E+03 -0.23451E+03  0.29196E+01  0.66531E+01  0.94208E+02      982.00
  0.67586E+00  0.38596E+03    0.38750E+00  0.38750E+00 -0.77500E+00  0.00000E+00  0.00000E+00  0.00000E+00    0.13198E+03  0.10249E+03 -0.23447E+03  0.30565E+01  0.70430E+01  0.90267E+02      982.00
  0.69864E+00  0.38351E+03    0.40000E+00  0.40000E+00 -0.80000E+00  0.00000E+00  0.00000E+00  0.00000E+00    0.13133E+03  0.10329E+03 -0.23462E+03  0.32085E+01  0.74458E+01  0.86484E+02      982.00
  0.72158E+00  0.38146E+03    0.41250E+00  0.41250E+00 -0.82500E+00  0.00000E+00  0.00000E+00  0.00000E+00    0.13080E+03  0.10414E+03 -0.23494E+03  0.33911E+01  0.78723E+01  0.82801E+02      982.00
  0.74468E+00  0.37981E+03    0.42500E+00  0.42500E+00 -0.85000E+00  0.00000E+00  0.00000E+00  0.00000E+00    0.13040E+03  0.10502E+03 -0.23541E+03  0.36012E+01  0.83239E+01  0.79222E+02      982.00
  0.76792E+00  0.37856E+03    0.43750E+00  0.43750E+00 -0.87500E+00  0.00000E+00  0.00000E+00  0.00000E+00    0.13010E+03  0.10595E+03 -0.23605E+03  0.38122E+01  0.87730E+01  0.75779E+02      982.00
  0.79130E+00  0.37768E+03    0.45000E+00  0.45000E+00 -0.90000E+00  0.00000E+00  0.00000E+00  0.00000E+00    0.12992E+03  0.10692E+03 -0.23684E+03  0.40712E+01  0.92786E+01  0.72409E+02      982.00
  0.81482E+00  0.37718E+03    0.46250E+00  0.46250E+00 -0.92500E+00  0.00000E+00  0.00000E+00  0.00000E+00    0.12984E+03  0.10795E+03 -0.23778E+03  0.43514E+01  0.98138E+01  0.69145E+02      982.00
  0.83846E+00  0.37705E+03    0.47500E+00  0.47500E+00 -0.95000E+00  0.00000E+00  0.00000E+00  0.00000E+00    0.12985E+03  0.10903E+03 -0.23887E+03  0.46341E+01  0.10355E+02  0.66002E+02      982.00
  0.86222E+00  0.37729E+03    0.48750E+00  0.48750E+00 -0.97500E+00  0.00000E+00  0.00000E+00  0.00000E+00    0.12996E+03  0.11017E+03 -0.24012E+03  0.49532E+01  0.10954E+02  0.62945E+02      982.00
  0.88608E+00  0.37788E+03    0.50000E+00  0.50000E+00 -0.10000E+01  0.00000E+00  0.00000E+00  0.00000E+00    0.13015E+03  0.11137E+03 -0.24152E+03  0.52753E+01  0.11562E+02  0.59996E+02      982.00
