          Evm          Svm            E11          E22          E33          E23          E13          E12         SDEV11       SDEV22       SDEV33       SDEV23       SDEV13       SDEV12      TEMP
  0.00000E+00  0.17632E+03    0.00000E+00  0.00000E+00  0.00000E+00  0.00000E+00  0.00000E+00  0.00000E+00    0.48853E+02  0.57583E+02 -0.10644E+03  0.10425E+02  0.10461E+02  0.40358E+02      982.00
  0.22638E-01  0.17913E+03    0.12500E-01  0.12500E-01 -0.25000E-01  0.00000E+00  0.00000E+00  0.00000E+00    0.50242E+02  0.57184E+02 -0.10743E+03  0.79794E+01  0.90497E+01  0.43399E+02      982.00
  0.45126E-01  0.17548E+03    0.25000E-01  0.25000E-01 -0.50000E-01  0.00000E+00  0.00000E+00  0.00000E+00    0.51236E+02  0.54187E+02 -0.10542E+03  0.60860E+01  0.71927E+01  0.42877E+02      982.00
  0.67654E-01  0.17980E+03    0.37500E-01  0.37500E-01 -0.75000E-01  0.00000E+00  0.00000E+00  0.00000E+00    0.53354E+02  0.53491E+02 -0.10684E+03  0.52491E+01  0.63715E+01  0.46321E+02      982.00
  0.89939E-01  0.19287E+03    0.50000E-01  0.50000E-01 -0.10000E+00  0.00000E+00  0.00000E+00  0.00000E+00    0.56931E+02  0.55034E+02 -0.11197E+03  0.50283E+01  0.62830E+01  0.54149E+02      982.00
  0.11171E+00  0.21535E+03    0.62500E-01  0.62500E-01 -0.12500E+00  0.00000E+00  0.00000E+00  0.00000E+00    0.62227E+02  0.58584E+02 -0.12081E+03  0.52190E+01  0.67191E+01  0.66604E+02      982.00
  0.13275E+00  0.24871E+03    0.75000E-01  0.75000E-01 -0.15000E+00  0.00000E+00  0.00000E+00  0.00000E+00    0.69555E+02  0.64156E+02 -0.13371E+03  0.57385E+01  0.75696E+01  0.84333E+02      982.00
  0.15291E+00  0.29274E+03    0.87500E-01  0.87500E-01 -0.17500E+00  0.00000E+00  0.00000E+00  0.00000E+00    0.78807E+02  0.71566E+02 -0.15037E+03  0.64919E+01  0.86990E+01  0.10712E+03      982.00
  0.17217E+00  0.34167E+03    0.10000E+00  0.10000E+00 -0.20000E+00  0.00000E+00  0.00000E+00  0.00000E+00    0.88762E+02  0.79822E+02 -0.16858E+03  0.72690E+01  0.98658E+01  0.13201E+03      982.00
  0.19067E+00  0.38670E+03    0.11250E+00  0.11250E+00 -0.22500E+00  0.00000E+00  0.00000E+00  0.00000E+00    0.97668E+02  0.87536E+02 -0.18520E+03  0.78598E+01  0.10831E+02  0.15464E+03      982.00
  0.20863E+00  0.42300E+03    0.12500E+00  0.12500E+00 -0.25000E+00  0.00000E+00  0.00000E+00  0.00000E+00    0.10463E+03  0.93959E+02 -0.19859E+03  0.82116E+01  0.11519E+02  0.17273E+03      982.00
  0.22624E+00  0.45099E+03    0.13750E+00  0.13750E+00 -0.27500E+00  0.00000E+00  0.00000E+00  0.00000E+00    0.10980E+03  0.99115E+02 -0.20891E+03  0.83814E+01  0.11971E+02  0.18661E+03      982.00
  0.24361E+00  0.47237E+03    0.15000E+00  0.15000E+00 -0.30000E+00  0.00000E+00  0.00000E+00  0.00000E+00    0.11357E+03  0.10323E+03 -0.21680E+03  0.84301E+01  0.12243E+02  0.19718E+03      982.00
  0.26082E+00  0.48907E+03    0.16250E+00  0.16250E+00 -0.32500E+00  0.00000E+00  0.00000E+00  0.00000E+00    0.11634E+03  0.10659E+03 -0.22293E+03  0.83974E+01  0.12369E+02  0.20545E+03      982.00
  0.27791E+00  0.50211E+03    0.17500E+00  0.17500E+00 -0.35000E+00  0.00000E+00  0.00000E+00  0.00000E+00    0.11842E+03  0.10927E+03 -0.22768E+03  0.83157E+01  0.12386E+02  0.21193E+03      982.00
  0.29492E+00  0.51295E+03    0.18750E+00  0.18750E+00 -0.37500E+00  0.00000E+00  0.00000E+00  0.00000E+00    0.12000E+03  0.11158E+03 -0.23159E+03  0.81880E+01  0.12299E+02  0.21736E+03      982.00
  0.31185E+00  0.52182E+03    0.20000E+00  0.20000E+00 -0.40000E+00  0.00000E+00  0.00000E+00  0.00000E+00    0.12117E+03  0.11355E+03 -0.23472E+03  0.80287E+01  0.12131E+02  0.22185E+03      982.00
  0.32872E+00  0.52927E+03    0.21250E+00  0.21250E+00 -0.42500E+00  0.00000E+00  0.00000E+00  0.00000E+00    0.12204E+03  0.11526E+03 -0.23730E+03  0.78485E+01  0.11900E+02  0.22567E+03      982.00
  0.34553E+00  0.53565E+03    0.22500E+00  0.22500E+00 -0.45000E+00  0.00000E+00  0.00000E+00  0.00000E+00    0.12272E+03  0.11675E+03 -0.23947E+03  0.76504E+01  0.11612E+02  0.22897E+03      982.00
  0.36230E+00  0.54101E+03    0.23750E+00  0.23750E+00 -0.47500E+00  0.00000E+00  0.00000E+00  0.00000E+00    0.12319E+03  0.11806E+03 -0.24125E+03  0.74412E+01  0.11284E+02  0.23179E+03      982.00
  0.37902E+00  0.54579E+03    0.25000E+00  0.25000E+00 -0.50000E+00  0.00000E+00  0.00000E+00  0.00000E+00    0.12357E+03  0.11923E+03 -0.24280E+03  0.72265E+01  0.10923E+02  0.23432E+03      982.00
  0.39570E+00  0.54999E+03    0.26250E+00  0.26250E+00 -0.52500E+00  0.00000E+00  0.00000E+00  0.00000E+00    0.12387E+03  0.12026E+03 -0.24413E+03  0.70098E+01  0.10540E+02  0.23657E+03      982.00
  0.41235E+00  0.55364E+03    0.27500E+00  0.27500E+00 -0.55000E+00  0.00000E+00  0.00000E+00  0.00000E+00    0.12406E+03  0.12121E+03 -0.24527E+03  0.67951E+01  0.10142E+02  0.23854E+03      982.00
  0.42896E+00  0.55693E+03    0.28750E+00  0.28750E+00 -0.57500E+00  0.00000E+00  0.00000E+00  0.00000E+00    0.12423E+03  0.12205E+03 -0.24628E+03  0.65831E+01  0.97368E+01  0.24034E+03      982.00
  0.44554E+00  0.55986E+03    0.30000E+00  0.30000E+00 -0.60000E+00  0.00000E+00  0.00000E+00  0.00000E+00    0.12434E+03  0.12282E+03 -0.24716E+03  0.63793E+01  0.93293E+01  0.24194E+03      982.00
  0.46210E+00  0.56081E+03    0.31250E+00  0.31250E+00 -0.62500E+00  0.00000E+00  0.00000E+00  0.00000E+00    0.12418E+03  0.12310E+03 -0.24727E+03  0.61703E+01  0.89159E+01  0.24261E+03      982.00
  0.47863E+00  0.56143E+03    0.32500E+00  0.32500E+00 -0.65000E+00  0.00000E+00  0.00000E+00  0.00000E+00    0.12401E+03  0.12328E+03 -0.24729E+03  0.59720E+01  0.84990E+01  0.24310E+03      982.00
  0.49515E+00  0.56209E+03    0.33750E+00  0.33750E+00 -0.67500E+00  0.00000E+00  0.00000E+00  0.00000E+00    0.12385E+03  0.12349E+03 -0.24734E+03  0.57727E+01  0.80980E+01  0.24358E+03      982.00
  0.51165E+00  0.56263E+03    0.35000E+00  0.35000E+00 -0.70000E+00  0.00000E+00  0.00000E+00  0.00000E+00    0.12373E+03  0.12364E+03 -0.24737E+03  0.55961E+01  0.77154E+01  0.24400E+03      982.00
  0.52814E+00  0.56314E+03    0.36250E+00  0.36250E+00 -0.72500E+00  0.00000E+00  0.00000E+00  0.00000E+00    0.12364E+03  0.12376E+03 -0.24740E+03  0.54282E+01  0.73504E+01  0.24437E+03      982.00
  0.54461E+00  0.56369E+03    0.37500E+00  0.37500E+00 -0.75000E+00  0.00000E+00  0.00000E+00  0.00000E+00    0.12353E+03  0.12394E+03 -0.24746E+03  0.52456E+01  0.69621E+01  0.24477E+03      982.00
  0.56108E+00  0.56412E+03    0.38750E+00  0.38750E+00 -0.77500E+00  0.00000E+00  0.00000E+00  0.00000E+00    0.12349E+03  0.12401E+03 -0.24751E+03  0.50747E+01  0.65889E+01  0.24508E+03      982.00
  0.57753E+00  0.56452E+03    0.40000E+00  0.40000E+00 -0.80000E+00  0.00000E+00  0.00000E+00  0.00000E+00    0.12343E+03  0.12412E+03 -0.24755E+03  0.49291E+01  0.62717E+01  0.24536E+03      982.00
  0.59397E+00  0.56495E+03    0.41250E+00  0.41250E+00 -0.82500E+00  0.00000E+00  0.00000E+00  0.00000E+00    0.12338E+03  0.12424E+03 -0.24762E+03  0.47672E+01  0.59361E+01  0.24565E+03      982.00
  0.61041E+00  0.56529E+03    0.42500E+00  0.42500E+00 -0.85000E+00  0.00000E+00  0.00000E+00  0.00000E+00    0.12335E+03  0.12430E+03 -0.24766E+03  0.46333E+01  0.56503E+01  0.24589E+03      982.00
  0.62684E+00  0.56559E+03    0.43750E+00  0.43750E+00 -0.87500E+00  0.00000E+00  0.00000E+00  0.00000E+00    0.12329E+03  0.12439E+03 -0.24768E+03  0.45176E+01  0.53969E+01  0.24611E+03      982.00
  0.64326E+00  0.56587E+03    0.45000E+00  0.45000E+00 -0.90000E+00  0.00000E+00  0.00000E+00  0.00000E+00    0.12329E+03  0.12442E+03 -0.24772E+03  0.43928E+01  0.51382E+01  0.24631E+03      982.00
  0.65968E+00  0.56613E+03    0.46250E+00  0.46250E+00 -0.92500E+00  0.00000E+00  0.00000E+00  0.00000E+00    0.12329E+03  0.12446E+03 -0.24775E+03  0.42682E+01  0.48859E+01  0.24649E+03      982.00
  0.67609E+00  0.56638E+03    0.47500E+00  0.47500E+00 -0.95000E+00  0.00000E+00  0.00000E+00  0.00000E+00    0.12330E+03  0.12449E+03 -0.24779E+03  0.41465E+01  0.46439E+01  0.24665E+03      982.00
  0.69249E+00  0.56660E+03    0.48750E+00  0.48750E+00 -0.97500E+00  0.00000E+00  0.00000E+00  0.00000E+00    0.12332E+03  0.12451E+03 -0.24783E+03  0.40275E+01  0.44117E+01  0.24680E+03      982.00
  0.70890E+00  0.56682E+03    0.50000E+00  0.50000E+00 -0.10000E+01  0.00000E+00  0.00000E+00  0.00000E+00    0.12334E+03  0.12453E+03 -0.24787E+03  0.39110E+01  0.41886E+01  0.24694E+03      982.00
