          Evm          Svm            E11          E22          E33          E23          E13          E12         SDEV11       SDEV22       SDEV33       SDEV23       SDEV13       SDEV12      TEMP
  0.00000E+00  0.17743E+03    0.00000E+00  0.00000E+00  0.00000E+00  0.00000E+00  0.00000E+00  0.00000E+00    0.56526E+02  0.52040E+02 -0.10857E+03  0.11472E+02  0.13849E+02  0.36411E+02      982.00
  0.22945E-01  0.17759E+03    0.12500E-01  0.12500E-01 -0.25000E-01  0.00000E+00  0.00000E+00  0.00000E+00    0.56861E+02  0.51480E+02 -0.10834E+03  0.95013E+01  0.11273E+02  0.38526E+02      982.00
  0.45823E-01  0.16982E+03    0.25000E-01  0.25000E-01 -0.50000E-01  0.00000E+00  0.00000E+00  0.00000E+00    0.53815E+02  0.50449E+02 -0.10426E+03  0.68644E+01  0.83429E+01  0.36612E+02      982.00
  0.68847E-01  0.17030E+03    0.37500E-01  0.37500E-01 -0.75000E-01  0.00000E+00  0.00000E+00  0.00000E+00    0.52801E+02  0.51161E+02 -0.10396E+03  0.55940E+01  0.69295E+01  0.38486E+02      982.00
  0.91739E-01  0.18211E+03    0.50000E-01  0.50000E-01 -0.10000E+00  0.00000E+00  0.00000E+00  0.00000E+00    0.54766E+02  0.54073E+02 -0.10884E+03  0.53948E+01  0.66358E+01  0.45792E+02      982.00
  0.11415E+00  0.20480E+03    0.62500E-01  0.62500E-01 -0.12500E+00  0.00000E+00  0.00000E+00  0.00000E+00    0.59209E+02  0.59095E+02 -0.11830E+03  0.58354E+01  0.70042E+01  0.58321E+02      982.00
  0.13581E+00  0.23957E+03    0.75000E-01  0.75000E-01 -0.15000E+00  0.00000E+00  0.00000E+00  0.00000E+00    0.66047E+02  0.66378E+02 -0.13242E+03  0.67360E+01  0.78404E+01  0.76635E+02      982.00
  0.15654E+00  0.28603E+03    0.87500E-01  0.87500E-01 -0.17500E+00  0.00000E+00  0.00000E+00  0.00000E+00    0.74983E+02  0.75750E+02 -0.15073E+03  0.79471E+01  0.89911E+01  0.10043E+03      982.00
  0.17630E+00  0.33755E+03    0.10000E+00  0.10000E+00 -0.20000E+00  0.00000E+00  0.00000E+00  0.00000E+00    0.84662E+02  0.85939E+02 -0.17060E+03  0.91791E+01  0.10168E+02  0.12635E+03      982.00
  0.19526E+00  0.38378E+03    0.11250E+00  0.11250E+00 -0.22500E+00  0.00000E+00  0.00000E+00  0.00000E+00    0.93191E+02  0.95055E+02 -0.18825E+03  0.10156E+02  0.11098E+02  0.14930E+03      982.00
  0.21365E+00  0.42038E+03    0.12500E+00  0.12500E+00 -0.25000E+00  0.00000E+00  0.00000E+00  0.00000E+00    0.99850E+02  0.10233E+03 -0.20218E+03  0.10833E+02  0.11739E+02  0.16731E+03      982.00
  0.23169E+00  0.44820E+03    0.13750E+00  0.13750E+00 -0.27500E+00  0.00000E+00  0.00000E+00  0.00000E+00    0.10483E+03  0.10791E+03 -0.21275E+03  0.11282E+02  0.12157E+02  0.18094E+03      982.00
  0.24949E+00  0.46911E+03    0.15000E+00  0.15000E+00 -0.30000E+00  0.00000E+00  0.00000E+00  0.00000E+00    0.10849E+03  0.11216E+03 -0.22065E+03  0.11583E+02  0.12431E+02  0.19117E+03      982.00
  0.26712E+00  0.48564E+03    0.16250E+00  0.16250E+00 -0.32500E+00  0.00000E+00  0.00000E+00  0.00000E+00    0.11128E+03  0.11554E+03 -0.22683E+03  0.11769E+02  0.12590E+02  0.19931E+03      982.00
  0.28464E+00  0.49851E+03    0.17500E+00  0.17500E+00 -0.35000E+00  0.00000E+00  0.00000E+00  0.00000E+00    0.11335E+03  0.11820E+03 -0.23154E+03  0.11877E+02  0.12672E+02  0.20572E+03      982.00
  0.30206E+00  0.50845E+03    0.18750E+00  0.18750E+00 -0.37500E+00  0.00000E+00  0.00000E+00  0.00000E+00    0.11482E+03  0.12026E+03 -0.23509E+03  0.11925E+02  0.12693E+02  0.21074E+03      982.00
  0.31940E+00  0.51720E+03    0.20000E+00  0.20000E+00 -0.40000E+00  0.00000E+00  0.00000E+00  0.00000E+00    0.11602E+03  0.12209E+03 -0.23811E+03  0.11914E+02  0.12653E+02  0.21525E+03      982.00
  0.33666E+00  0.52408E+03    0.21250E+00  0.21250E+00 -0.42500E+00  0.00000E+00  0.00000E+00  0.00000E+00    0.11692E+03  0.12346E+03 -0.24038E+03  0.11873E+02  0.12576E+02  0.21887E+03      982.00
  0.35386E+00  0.53014E+03    0.22500E+00  0.22500E+00 -0.45000E+00  0.00000E+00  0.00000E+00  0.00000E+00    0.11756E+03  0.12472E+03 -0.24228E+03  0.11763E+02  0.12430E+02  0.22215E+03      982.00
  0.37100E+00  0.53550E+03    0.23750E+00  0.23750E+00 -0.47500E+00  0.00000E+00  0.00000E+00  0.00000E+00    0.11804E+03  0.12583E+03 -0.24388E+03  0.11610E+02  0.12237E+02  0.22512E+03      982.00
  0.38808E+00  0.54009E+03    0.25000E+00  0.25000E+00 -0.50000E+00  0.00000E+00  0.00000E+00  0.00000E+00    0.11834E+03  0.12681E+03 -0.24515E+03  0.11415E+02  0.12001E+02  0.22774E+03      982.00
  0.40510E+00  0.54425E+03    0.26250E+00  0.26250E+00 -0.52500E+00  0.00000E+00  0.00000E+00  0.00000E+00    0.11857E+03  0.12768E+03 -0.24625E+03  0.11186E+02  0.11724E+02  0.23016E+03      982.00
  0.42206E+00  0.54798E+03    0.27500E+00  0.27500E+00 -0.55000E+00  0.00000E+00  0.00000E+00  0.00000E+00    0.11870E+03  0.12846E+03 -0.24717E+03  0.10925E+02  0.11411E+02  0.23239E+03      982.00
  0.43898E+00  0.55135E+03    0.28750E+00  0.28750E+00 -0.57500E+00  0.00000E+00  0.00000E+00  0.00000E+00    0.11878E+03  0.12917E+03 -0.24795E+03  0.10637E+02  0.11068E+02  0.23443E+03      982.00
  0.45584E+00  0.55246E+03    0.30000E+00  0.30000E+00 -0.60000E+00  0.00000E+00  0.00000E+00  0.00000E+00    0.11842E+03  0.12940E+03 -0.24783E+03  0.10298E+02  0.10669E+02  0.23542E+03      982.00
  0.47267E+00  0.55341E+03    0.31250E+00  0.31250E+00 -0.62500E+00  0.00000E+00  0.00000E+00  0.00000E+00    0.11812E+03  0.12957E+03 -0.24769E+03  0.99473E+01  0.10254E+02  0.23630E+03      982.00
  0.48945E+00  0.55433E+03    0.32500E+00  0.32500E+00 -0.65000E+00  0.00000E+00  0.00000E+00  0.00000E+00    0.11785E+03  0.12971E+03 -0.24757E+03  0.96000E+01  0.98407E+01  0.23714E+03      982.00
  0.50620E+00  0.55529E+03    0.33750E+00  0.33750E+00 -0.67500E+00  0.00000E+00  0.00000E+00  0.00000E+00    0.11759E+03  0.12990E+03 -0.24749E+03  0.92587E+01  0.94389E+01  0.23797E+03      982.00
  0.52291E+00  0.55614E+03    0.35000E+00  0.35000E+00 -0.70000E+00  0.00000E+00  0.00000E+00  0.00000E+00    0.11737E+03  0.13004E+03 -0.24741E+03  0.89245E+01  0.90379E+01  0.23872E+03      982.00
  0.53959E+00  0.55695E+03    0.36250E+00  0.36250E+00 -0.72500E+00  0.00000E+00  0.00000E+00  0.00000E+00    0.11717E+03  0.13017E+03 -0.24734E+03  0.86009E+01  0.86472E+01  0.23942E+03      982.00
  0.55625E+00  0.55782E+03    0.37500E+00  0.37500E+00 -0.75000E+00  0.00000E+00  0.00000E+00  0.00000E+00    0.11698E+03  0.13034E+03 -0.24732E+03  0.82767E+01  0.82593E+01  0.24013E+03      982.00
  0.57287E+00  0.55855E+03    0.38750E+00  0.38750E+00 -0.77500E+00  0.00000E+00  0.00000E+00  0.00000E+00    0.11682E+03  0.13046E+03 -0.24728E+03  0.79763E+01  0.78928E+01  0.24075E+03      982.00
  0.58948E+00  0.55924E+03    0.40000E+00  0.40000E+00 -0.80000E+00  0.00000E+00  0.00000E+00  0.00000E+00    0.11669E+03  0.13057E+03 -0.24725E+03  0.76887E+01  0.75399E+01  0.24132E+03      982.00
  0.60606E+00  0.56001E+03    0.41250E+00  0.41250E+00 -0.82500E+00  0.00000E+00  0.00000E+00  0.00000E+00    0.11655E+03  0.13073E+03 -0.24728E+03  0.73778E+01  0.71596E+01  0.24191E+03      982.00
  0.62261E+00  0.56062E+03    0.42500E+00  0.42500E+00 -0.85000E+00  0.00000E+00  0.00000E+00  0.00000E+00    0.11645E+03  0.13083E+03 -0.24727E+03  0.71166E+01  0.68363E+01  0.24240E+03      982.00
  0.63915E+00  0.56118E+03    0.43750E+00  0.43750E+00 -0.87500E+00  0.00000E+00  0.00000E+00  0.00000E+00    0.11636E+03  0.13091E+03 -0.24727E+03  0.68670E+01  0.65263E+01  0.24285E+03      982.00
  0.65568E+00  0.56171E+03    0.45000E+00  0.45000E+00 -0.90000E+00  0.00000E+00  0.00000E+00  0.00000E+00    0.11629E+03  0.13099E+03 -0.24728E+03  0.66286E+01  0.62295E+01  0.24326E+03      982.00
  0.67219E+00  0.56221E+03    0.46250E+00  0.46250E+00 -0.92500E+00  0.00000E+00  0.00000E+00  0.00000E+00    0.11624E+03  0.13106E+03 -0.24730E+03  0.64059E+01  0.59517E+01  0.24364E+03      982.00
  0.68868E+00  0.56275E+03    0.47500E+00  0.47500E+00 -0.95000E+00  0.00000E+00  0.00000E+00  0.00000E+00    0.11621E+03  0.13116E+03 -0.24737E+03  0.61266E+01  0.56050E+01  0.24401E+03      982.00
  0.70516E+00  0.56318E+03    0.48750E+00  0.48750E+00 -0.97500E+00  0.00000E+00  0.00000E+00  0.00000E+00    0.11617E+03  0.13122E+03 -0.24739E+03  0.59185E+01  0.53451E+01  0.24434E+03      982.00
  0.72164E+00  0.56359E+03    0.50000E+00  0.50000E+00 -0.10000E+01  0.00000E+00  0.00000E+00  0.00000E+00    0.11612E+03  0.13129E+03 -0.24741E+03  0.57367E+01  0.51164E+01  0.24464E+03      982.00
