          Evm          Svm            E11          E22          E33          E23          E13          E12         SDEV11       SDEV22       SDEV33       SDEV23       SDEV13       SDEV12      TEMP
  0.00000E+00  0.14687E+03    0.00000E+00  0.00000E+00  0.00000E+00  0.00000E+00  0.00000E+00  0.00000E+00    0.44271E+02  0.48576E+02 -0.92847E+02  0.80547E+00  0.94543E-01  0.26821E+02      982.00
  0.23707E-01  0.14824E+03    0.12500E-01  0.12500E-01 -0.25000E-01  0.00000E+00  0.00000E+00  0.00000E+00    0.44302E+02  0.49017E+02 -0.93319E+02  0.11540E+01  0.19727E+00  0.28046E+02      982.00
  0.47314E-01  0.15122E+03    0.25000E-01  0.25000E-01 -0.50000E-01  0.00000E+00  0.00000E+00  0.00000E+00    0.44414E+02  0.50111E+02 -0.94525E+02  0.14334E+01  0.48768E+00  0.30173E+02      982.00
  0.70755E-01  0.15697E+03    0.37500E-01  0.37500E-01 -0.75000E-01  0.00000E+00  0.00000E+00  0.00000E+00    0.44880E+02  0.52056E+02 -0.96936E+02  0.15838E+01  0.94825E+00  0.33911E+02      982.00
  0.93912E-01  0.16632E+03    0.50000E-01  0.50000E-01 -0.10000E+00  0.00000E+00  0.00000E+00  0.00000E+00    0.45934E+02  0.54938E+02 -0.10087E+03  0.17193E+01  0.14532E+01  0.39551E+02      982.00
  0.11666E+00  0.18063E+03    0.62500E-01  0.62500E-01 -0.12500E+00  0.00000E+00  0.00000E+00  0.00000E+00    0.47732E+02  0.59061E+02 -0.10679E+03  0.18859E+01  0.19918E+01  0.47774E+02      982.00
  0.13883E+00  0.20170E+03    0.75000E-01  0.75000E-01 -0.15000E+00  0.00000E+00  0.00000E+00  0.00000E+00    0.50473E+02  0.64808E+02 -0.11528E+03  0.21523E+01  0.25589E+01  0.59423E+02      982.00
  0.16026E+00  0.23196E+03    0.87500E-01  0.87500E-01 -0.17500E+00  0.00000E+00  0.00000E+00  0.00000E+00    0.54373E+02  0.72702E+02 -0.12707E+03  0.25192E+01  0.32015E+01  0.75652E+02      982.00
  0.18080E+00  0.27273E+03    0.10000E+00  0.10000E+00 -0.20000E+00  0.00000E+00  0.00000E+00  0.00000E+00    0.59533E+02  0.82956E+02 -0.14249E+03  0.30321E+01  0.39003E+01  0.96975E+02      982.00
  0.20040E+00  0.32200E+03    0.11250E+00  0.11250E+00 -0.22500E+00  0.00000E+00  0.00000E+00  0.00000E+00    0.65632E+02  0.95023E+02 -0.16066E+03  0.36162E+01  0.46278E+01  0.12229E+03      982.00
  0.21911E+00  0.37139E+03    0.12500E+00  0.12500E+00 -0.25000E+00  0.00000E+00  0.00000E+00  0.00000E+00    0.71701E+02  0.10693E+03 -0.17863E+03  0.42048E+01  0.52279E+01  0.14727E+03      982.00
  0.23714E+00  0.41362E+03    0.13750E+00  0.13750E+00 -0.27500E+00  0.00000E+00  0.00000E+00  0.00000E+00    0.76858E+02  0.11705E+03 -0.19391E+03  0.46695E+01  0.56499E+01  0.16843E+03      982.00
  0.25472E+00  0.44629E+03    0.15000E+00  0.15000E+00 -0.30000E+00  0.00000E+00  0.00000E+00  0.00000E+00    0.80853E+02  0.12486E+03 -0.20571E+03  0.50013E+01  0.58943E+01  0.18469E+03      982.00
  0.27201E+00  0.47084E+03    0.16250E+00  0.16250E+00 -0.32500E+00  0.00000E+00  0.00000E+00  0.00000E+00    0.83915E+02  0.13072E+03 -0.21464E+03  0.52599E+01  0.59850E+01  0.19681E+03      982.00
  0.28910E+00  0.48958E+03    0.17500E+00  0.17500E+00 -0.35000E+00  0.00000E+00  0.00000E+00  0.00000E+00    0.86273E+02  0.13518E+03 -0.22146E+03  0.54352E+01  0.59870E+01  0.20604E+03      982.00
  0.30607E+00  0.50428E+03    0.18750E+00  0.18750E+00 -0.37500E+00  0.00000E+00  0.00000E+00  0.00000E+00    0.88130E+02  0.13866E+03 -0.22679E+03  0.55414E+01  0.59360E+01  0.21327E+03      982.00
  0.32293E+00  0.51552E+03    0.20000E+00  0.20000E+00 -0.40000E+00  0.00000E+00  0.00000E+00  0.00000E+00    0.89599E+02  0.14130E+03 -0.23090E+03  0.56187E+01  0.58248E+01  0.21879E+03      982.00
  0.33973E+00  0.52482E+03    0.21250E+00  0.21250E+00 -0.42500E+00  0.00000E+00  0.00000E+00  0.00000E+00    0.90793E+02  0.14346E+03 -0.23426E+03  0.56311E+01  0.57071E+01  0.22338E+03      982.00
  0.35647E+00  0.53244E+03    0.22500E+00  0.22500E+00 -0.45000E+00  0.00000E+00  0.00000E+00  0.00000E+00    0.91778E+02  0.14521E+03 -0.23699E+03  0.56098E+01  0.55737E+01  0.22715E+03      982.00
  0.37316E+00  0.53850E+03    0.23750E+00  0.23750E+00 -0.47500E+00  0.00000E+00  0.00000E+00  0.00000E+00    0.92575E+02  0.14658E+03 -0.23915E+03  0.55579E+01  0.54302E+01  0.23016E+03      982.00
  0.38981E+00  0.54359E+03    0.25000E+00  0.25000E+00 -0.50000E+00  0.00000E+00  0.00000E+00  0.00000E+00    0.93235E+02  0.14772E+03 -0.24095E+03  0.54772E+01  0.52905E+01  0.23271E+03      982.00
  0.40643E+00  0.54789E+03    0.26250E+00  0.26250E+00 -0.52500E+00  0.00000E+00  0.00000E+00  0.00000E+00    0.93822E+02  0.14866E+03 -0.24248E+03  0.54016E+01  0.51291E+01  0.23486E+03      982.00
  0.42303E+00  0.54778E+03    0.27500E+00  0.27500E+00 -0.55000E+00  0.00000E+00  0.00000E+00  0.00000E+00    0.93668E+02  0.14866E+03 -0.24233E+03  0.51793E+01  0.49270E+01  0.23489E+03      982.00
  0.43962E+00  0.54811E+03    0.28750E+00  0.28750E+00 -0.57500E+00  0.00000E+00  0.00000E+00  0.00000E+00    0.93744E+02  0.14860E+03 -0.24234E+03  0.50083E+01  0.47985E+01  0.23515E+03      982.00
  0.45620E+00  0.54823E+03    0.30000E+00  0.30000E+00 -0.60000E+00  0.00000E+00  0.00000E+00  0.00000E+00    0.93794E+02  0.14850E+03 -0.24229E+03  0.48442E+01  0.46724E+01  0.23529E+03      982.00
  0.47277E+00  0.54830E+03    0.31250E+00  0.31250E+00 -0.62500E+00  0.00000E+00  0.00000E+00  0.00000E+00    0.93828E+02  0.14841E+03 -0.24224E+03  0.46840E+01  0.45479E+01  0.23540E+03      982.00
  0.48934E+00  0.54836E+03    0.32500E+00  0.32500E+00 -0.65000E+00  0.00000E+00  0.00000E+00  0.00000E+00    0.93855E+02  0.14833E+03 -0.24219E+03  0.45268E+01  0.44266E+01  0.23550E+03      982.00
  0.50590E+00  0.54841E+03    0.33750E+00  0.33750E+00 -0.67500E+00  0.00000E+00  0.00000E+00  0.00000E+00    0.93880E+02  0.14826E+03 -0.24214E+03  0.43729E+01  0.43088E+01  0.23559E+03      982.00
  0.52246E+00  0.54846E+03    0.35000E+00  0.35000E+00 -0.70000E+00  0.00000E+00  0.00000E+00  0.00000E+00    0.93906E+02  0.14819E+03 -0.24210E+03  0.42223E+01  0.41945E+01  0.23567E+03      982.00
  0.53901E+00  0.54850E+03    0.36250E+00  0.36250E+00 -0.72500E+00  0.00000E+00  0.00000E+00  0.00000E+00    0.93933E+02  0.14813E+03 -0.24206E+03  0.40753E+01  0.40837E+01  0.23574E+03      982.00
  0.55556E+00  0.54853E+03    0.37500E+00  0.37500E+00 -0.75000E+00  0.00000E+00  0.00000E+00  0.00000E+00    0.93961E+02  0.14806E+03 -0.24202E+03  0.39319E+01  0.39763E+01  0.23580E+03      982.00
  0.57211E+00  0.54856E+03    0.38750E+00  0.38750E+00 -0.77500E+00  0.00000E+00  0.00000E+00  0.00000E+00    0.93992E+02  0.14799E+03 -0.24199E+03  0.37920E+01  0.38723E+01  0.23586E+03      982.00
  0.58865E+00  0.54858E+03    0.40000E+00  0.40000E+00 -0.80000E+00  0.00000E+00  0.00000E+00  0.00000E+00    0.94024E+02  0.14793E+03 -0.24195E+03  0.36557E+01  0.37715E+01  0.23591E+03      982.00
  0.60519E+00  0.54865E+03    0.41250E+00  0.41250E+00 -0.82500E+00  0.00000E+00  0.00000E+00  0.00000E+00    0.93968E+02  0.14796E+03 -0.24192E+03  0.35140E+01  0.36743E+01  0.23599E+03      982.00
  0.62172E+00  0.54866E+03    0.42500E+00  0.42500E+00 -0.85000E+00  0.00000E+00  0.00000E+00  0.00000E+00    0.94048E+02  0.14785E+03 -0.24189E+03  0.33888E+01  0.35838E+01  0.23603E+03      982.00
  0.63826E+00  0.54866E+03    0.43750E+00  0.43750E+00 -0.87500E+00  0.00000E+00  0.00000E+00  0.00000E+00    0.94102E+02  0.14777E+03 -0.24187E+03  0.32612E+01  0.34920E+01  0.23606E+03      982.00
  0.65479E+00  0.54866E+03    0.45000E+00  0.45000E+00 -0.90000E+00  0.00000E+00  0.00000E+00  0.00000E+00    0.94152E+02  0.14769E+03 -0.24184E+03  0.31372E+01  0.34027E+01  0.23609E+03      982.00
  0.67132E+00  0.54865E+03    0.46250E+00  0.46250E+00 -0.92500E+00  0.00000E+00  0.00000E+00  0.00000E+00    0.94200E+02  0.14762E+03 -0.24182E+03  0.30167E+01  0.33162E+01  0.23611E+03      982.00
  0.68785E+00  0.54865E+03    0.47500E+00  0.47500E+00 -0.95000E+00  0.00000E+00  0.00000E+00  0.00000E+00    0.94247E+02  0.14755E+03 -0.24180E+03  0.28998E+01  0.32326E+01  0.23613E+03      982.00
  0.70437E+00  0.54864E+03    0.48750E+00  0.48750E+00 -0.97500E+00  0.00000E+00  0.00000E+00  0.00000E+00    0.94294E+02  0.14749E+03 -0.24178E+03  0.27863E+01  0.31519E+01  0.23615E+03      982.00
  0.72090E+00  0.54864E+03    0.50000E+00  0.50000E+00 -0.10000E+01  0.00000E+00  0.00000E+00  0.00000E+00    0.94342E+02  0.14742E+03 -0.24176E+03  0.26762E+01  0.30739E+01  0.23617E+03      982.00
