          Evm          Svm            E11          E22          E33          E23          E13          E12         SDEV11       SDEV22       SDEV33       SDEV23       SDEV13       SDEV12      TEMP
  0.00000E+00  0.14407E+03    0.00000E+00  0.00000E+00  0.00000E+00  0.00000E+00  0.00000E+00  0.00000E+00    0.39399E+02  0.53853E+02 -0.93252E+02 -0.98094E+01 -0.66275E+01  0.14310E+02      982.00
  0.24272E-01  0.14363E+03    0.12500E-01  0.12500E-01 -0.25000E-01  0.00000E+00  0.00000E+00  0.00000E+00    0.39645E+02  0.53154E+02 -0.92799E+02 -0.95673E+01 -0.59214E+01  0.15669E+02      982.00
  0.48501E-01  0.14830E+03    0.25000E-01  0.25000E-01 -0.50000E-01  0.00000E+00  0.00000E+00  0.00000E+00    0.42095E+02  0.53208E+02 -0.95303E+02 -0.97907E+01 -0.57125E+01  0.18964E+02      982.00
  0.72600E-01  0.16136E+03    0.37500E-01  0.37500E-01 -0.75000E-01  0.00000E+00  0.00000E+00  0.00000E+00    0.48395E+02  0.53943E+02 -0.10234E+03 -0.10537E+02 -0.59710E+01  0.25885E+02      982.00
  0.96383E-01  0.19052E+03    0.50000E-01  0.50000E-01 -0.10000E+00  0.00000E+00  0.00000E+00  0.00000E+00    0.62571E+02  0.54533E+02 -0.11710E+03 -0.11997E+02 -0.66037E+01  0.40139E+02      982.00
  0.11943E+00  0.23109E+03    0.62500E-01  0.62500E-01 -0.12500E+00  0.00000E+00  0.00000E+00  0.00000E+00    0.82604E+02  0.52980E+02 -0.13558E+03 -0.13325E+02 -0.61220E+01  0.59828E+02      982.00
  0.14143E+00  0.25395E+03    0.75000E-01  0.75000E-01 -0.15000E+00  0.00000E+00  0.00000E+00  0.00000E+00    0.91166E+02  0.53946E+02 -0.14511E+03 -0.13535E+02 -0.55897E+01  0.71710E+02      982.00
  0.16286E+00  0.27669E+03    0.87500E-01  0.87500E-01 -0.17500E+00  0.00000E+00  0.00000E+00  0.00000E+00    0.96906E+02  0.57890E+02 -0.15480E+03 -0.13613E+02 -0.66632E+01  0.83296E+02      982.00
  0.18384E+00  0.30571E+03    0.10000E+00  0.10000E+00 -0.20000E+00  0.00000E+00  0.00000E+00  0.00000E+00    0.10439E+03  0.62819E+02 -0.16721E+03 -0.13759E+02 -0.81963E+01  0.97437E+02      982.00
  0.20435E+00  0.33756E+03    0.11250E+00  0.11250E+00 -0.22500E+00  0.00000E+00  0.00000E+00  0.00000E+00    0.11286E+03  0.67974E+02 -0.18084E+03 -0.13900E+02 -0.96526E+01  0.11254E+03      982.00
  0.22444E+00  0.36782E+03    0.12500E+00  0.12500E+00 -0.25000E+00  0.00000E+00  0.00000E+00  0.00000E+00    0.12115E+03  0.72635E+02 -0.19379E+03 -0.13920E+02 -0.10758E+02  0.12663E+03      982.00
  0.24420E+00  0.39407E+03    0.13750E+00  0.13750E+00 -0.27500E+00  0.00000E+00  0.00000E+00  0.00000E+00    0.12860E+03  0.76426E+02 -0.20503E+03 -0.13791E+02 -0.11452E+02  0.13869E+03      982.00
  0.26371E+00  0.41549E+03    0.15000E+00  0.15000E+00 -0.30000E+00  0.00000E+00  0.00000E+00  0.00000E+00    0.13504E+03  0.79218E+02 -0.21426E+03 -0.13528E+02 -0.11828E+02  0.14836E+03      982.00
  0.28305E+00  0.43239E+03    0.16250E+00  0.16250E+00 -0.32500E+00  0.00000E+00  0.00000E+00  0.00000E+00    0.14042E+03  0.81197E+02 -0.22162E+03 -0.13168E+02 -0.11973E+02  0.15585E+03      982.00
  0.30227E+00  0.44553E+03    0.17500E+00  0.17500E+00 -0.35000E+00  0.00000E+00  0.00000E+00  0.00000E+00    0.14488E+03  0.82546E+02 -0.22742E+03 -0.12743E+02 -0.11960E+02  0.16155E+03      982.00
  0.32141E+00  0.45595E+03    0.18750E+00  0.18750E+00 -0.37500E+00  0.00000E+00  0.00000E+00  0.00000E+00    0.14868E+03  0.83389E+02 -0.23207E+03 -0.12281E+02 -0.11817E+02  0.16598E+03      982.00
  0.34050E+00  0.46424E+03    0.20000E+00  0.20000E+00 -0.40000E+00  0.00000E+00  0.00000E+00  0.00000E+00    0.15199E+03  0.83822E+02 -0.23582E+03 -0.11782E+02 -0.11584E+02  0.16940E+03      982.00
  0.35955E+00  0.47083E+03    0.21250E+00  0.21250E+00 -0.42500E+00  0.00000E+00  0.00000E+00  0.00000E+00    0.15492E+03  0.83936E+02 -0.23886E+03 -0.11249E+02 -0.11293E+02  0.17202E+03      982.00
  0.37857E+00  0.47607E+03    0.22500E+00  0.22500E+00 -0.45000E+00  0.00000E+00  0.00000E+00  0.00000E+00    0.15758E+03  0.83768E+02 -0.24135E+03 -0.10686E+02 -0.10963E+02  0.17397E+03      982.00
  0.39758E+00  0.48021E+03    0.23750E+00  0.23750E+00 -0.47500E+00  0.00000E+00  0.00000E+00  0.00000E+00    0.16005E+03  0.83342E+02 -0.24339E+03 -0.10098E+02 -0.10601E+02  0.17536E+03      982.00
  0.41659E+00  0.47937E+03    0.25000E+00  0.25000E+00 -0.50000E+00  0.00000E+00  0.00000E+00  0.00000E+00    0.16102E+03  0.82236E+02 -0.24325E+03 -0.95499E+01 -0.10195E+02  0.17456E+03      982.00
  0.43562E+00  0.47827E+03    0.26250E+00  0.26250E+00 -0.52500E+00  0.00000E+00  0.00000E+00  0.00000E+00    0.16192E+03  0.81137E+02 -0.24305E+03 -0.90008E+01 -0.98104E+01  0.17359E+03      982.00
  0.45467E+00  0.47701E+03    0.27500E+00  0.27500E+00 -0.55000E+00  0.00000E+00  0.00000E+00  0.00000E+00    0.16277E+03  0.80060E+02 -0.24283E+03 -0.84537E+01 -0.94341E+01  0.17248E+03      982.00
  0.47376E+00  0.47557E+03    0.28750E+00  0.28750E+00 -0.57500E+00  0.00000E+00  0.00000E+00  0.00000E+00    0.16356E+03  0.79020E+02 -0.24258E+03 -0.79135E+01 -0.90623E+01  0.17124E+03      982.00
  0.49289E+00  0.47391E+03    0.30000E+00  0.30000E+00 -0.60000E+00  0.00000E+00  0.00000E+00  0.00000E+00    0.16426E+03  0.78034E+02 -0.24229E+03 -0.73849E+01 -0.86914E+01  0.16984E+03      982.00
  0.51206E+00  0.47204E+03    0.31250E+00  0.31250E+00 -0.62500E+00  0.00000E+00  0.00000E+00  0.00000E+00    0.16485E+03  0.77117E+02 -0.24197E+03 -0.68726E+01 -0.83181E+01  0.16829E+03      982.00
  0.53129E+00  0.46996E+03    0.32500E+00  0.32500E+00 -0.65000E+00  0.00000E+00  0.00000E+00  0.00000E+00    0.16537E+03  0.76238E+02 -0.24161E+03 -0.63790E+01 -0.79375E+01  0.16658E+03      982.00
  0.55057E+00  0.46760E+03    0.33750E+00  0.33750E+00 -0.67500E+00  0.00000E+00  0.00000E+00  0.00000E+00    0.16570E+03  0.75497E+02 -0.24119E+03 -0.59098E+01 -0.75547E+01  0.16470E+03      982.00
  0.56991E+00  0.46497E+03    0.35000E+00  0.35000E+00 -0.70000E+00  0.00000E+00  0.00000E+00  0.00000E+00    0.16586E+03  0.74856E+02 -0.24072E+03 -0.54656E+01 -0.71675E+01  0.16264E+03      982.00
  0.58932E+00  0.46208E+03    0.36250E+00  0.36250E+00 -0.72500E+00  0.00000E+00  0.00000E+00  0.00000E+00    0.16591E+03  0.74292E+02 -0.24020E+03 -0.50432E+01 -0.67757E+01  0.16041E+03      982.00
  0.60882E+00  0.45872E+03    0.37500E+00  0.37500E+00 -0.75000E+00  0.00000E+00  0.00000E+00  0.00000E+00    0.16572E+03  0.73826E+02 -0.23955E+03 -0.46521E+01 -0.64061E+01  0.15789E+03      982.00
  0.62840E+00  0.45521E+03    0.38750E+00  0.38750E+00 -0.77500E+00  0.00000E+00  0.00000E+00  0.00000E+00    0.16541E+03  0.73468E+02 -0.23887E+03 -0.42857E+01 -0.60262E+01  0.15527E+03      982.00
  0.64808E+00  0.45148E+03    0.40000E+00  0.40000E+00 -0.80000E+00  0.00000E+00  0.00000E+00  0.00000E+00    0.16490E+03  0.73260E+02 -0.23816E+03 -0.39481E+01 -0.56519E+01  0.15250E+03      982.00
  0.66786E+00  0.44732E+03    0.41250E+00  0.41250E+00 -0.82500E+00  0.00000E+00  0.00000E+00  0.00000E+00    0.16417E+03  0.73162E+02 -0.23734E+03 -0.36449E+01 -0.53036E+01  0.14947E+03      982.00
  0.68776E+00  0.44308E+03    0.42500E+00  0.42500E+00 -0.85000E+00  0.00000E+00  0.00000E+00  0.00000E+00    0.16336E+03  0.73149E+02 -0.23651E+03 -0.33578E+01 -0.49576E+01  0.14634E+03      982.00
  0.70777E+00  0.43861E+03    0.43750E+00  0.43750E+00 -0.87500E+00  0.00000E+00  0.00000E+00  0.00000E+00    0.16241E+03  0.73227E+02 -0.23564E+03 -0.30957E+01 -0.46324E+01  0.14304E+03      982.00
  0.72792E+00  0.43394E+03    0.45000E+00  0.45000E+00 -0.90000E+00  0.00000E+00  0.00000E+00  0.00000E+00    0.16134E+03  0.73393E+02 -0.23473E+03 -0.28587E+01 -0.43325E+01  0.13959E+03      982.00
  0.74820E+00  0.42925E+03    0.46250E+00  0.46250E+00 -0.92500E+00  0.00000E+00  0.00000E+00  0.00000E+00    0.16022E+03  0.73614E+02 -0.23383E+03 -0.26443E+01 -0.40373E+01  0.13606E+03      982.00
  0.76863E+00  0.42431E+03    0.47500E+00  0.47500E+00 -0.95000E+00  0.00000E+00  0.00000E+00  0.00000E+00    0.15893E+03  0.73937E+02 -0.23287E+03 -0.24560E+01 -0.37969E+01  0.13234E+03      982.00
  0.78921E+00  0.41929E+03    0.48750E+00  0.48750E+00 -0.97500E+00  0.00000E+00  0.00000E+00  0.00000E+00    0.15755E+03  0.74348E+02 -0.23190E+03 -0.22926E+01 -0.35932E+01  0.12852E+03      982.00
  0.80995E+00  0.41425E+03    0.50000E+00  0.50000E+00 -0.10000E+01  0.00000E+00  0.00000E+00  0.00000E+00    0.15611E+03  0.74839E+02 -0.23095E+03 -0.21529E+01 -0.34268E+01  0.12462E+03      982.00
