          Evm          Svm            E11          E22          E33          E23          E13          E12         SDEV11       SDEV22       SDEV33       SDEV23       SDEV13       SDEV12      TEMP
  0.00000E+00  0.29529E+03    0.00000E+00  0.00000E+00  0.00000E+00  0.00000E+00  0.00000E+00  0.00000E+00    0.99247E+02  0.97419E+02 -0.19667E+03  0.67911E+01 -0.21650E+01 -0.24747E+01      982.00
  0.24975E-01  0.25954E+03    0.12500E-01  0.12500E-01 -0.25000E-01  0.00000E+00  0.00000E+00  0.00000E+00    0.87162E+02  0.85757E+02 -0.17292E+03  0.35921E+01 -0.37544E+01 -0.63583E+00      982.00
  0.49960E-01  0.23927E+03    0.25000E-01  0.25000E-01 -0.50000E-01  0.00000E+00  0.00000E+00  0.00000E+00    0.79795E+02  0.79657E+02 -0.15945E+03  0.22343E+01 -0.30734E+01  0.16014E+00      982.00
  0.74950E-01  0.23708E+03    0.37500E-01  0.37500E-01 -0.75000E-01  0.00000E+00  0.00000E+00  0.00000E+00    0.78559E+02  0.79460E+02 -0.15802E+03  0.17310E+01 -0.19095E+01  0.75392E+00      982.00
  0.99945E-01  0.24483E+03    0.50000E-01  0.50000E-01 -0.10000E+00  0.00000E+00  0.00000E+00  0.00000E+00    0.80831E+02  0.82368E+02 -0.16320E+03  0.15425E+01 -0.87999E+00  0.11706E+01      982.00
  0.12494E+00  0.26372E+03    0.62500E-01  0.62500E-01 -0.12500E+00  0.00000E+00  0.00000E+00  0.00000E+00    0.87071E+02  0.88721E+02 -0.17579E+03  0.16248E+01  0.21396E-02  0.13664E+01      982.00
  0.14994E+00  0.29167E+03    0.75000E-01  0.75000E-01 -0.15000E+00  0.00000E+00  0.00000E+00  0.00000E+00    0.96605E+02  0.97816E+02 -0.19442E+03  0.20002E+01  0.80127E+00  0.13193E+01      982.00
  0.17494E+00  0.32138E+03    0.87500E-01  0.87500E-01 -0.17500E+00  0.00000E+00  0.00000E+00  0.00000E+00    0.10703E+03  0.10719E+03 -0.21422E+03  0.24999E+01  0.15016E+01  0.12712E+01      982.00
  0.19993E+00  0.35301E+03    0.10000E+00  0.10000E+00 -0.20000E+00  0.00000E+00  0.00000E+00  0.00000E+00    0.11810E+03  0.11719E+03 -0.23529E+03  0.32415E+01  0.21909E+01  0.11565E+01      982.00
  0.22493E+00  0.38351E+03    0.11250E+00  0.11250E+00 -0.22500E+00  0.00000E+00  0.00000E+00  0.00000E+00    0.12870E+03  0.12690E+03 -0.25560E+03  0.41326E+01  0.28559E+01  0.98072E+00      982.00
  0.24992E+00  0.41217E+03    0.12500E+00  0.12500E+00 -0.25000E+00  0.00000E+00  0.00000E+00  0.00000E+00    0.13860E+03  0.13608E+03 -0.27468E+03  0.51356E+01  0.35185E+01  0.67790E+00      982.00
  0.27491E+00  0.43851E+03    0.13750E+00  0.13750E+00 -0.27500E+00  0.00000E+00  0.00000E+00  0.00000E+00    0.14768E+03  0.14453E+03 -0.29221E+03  0.62024E+01  0.41694E+01  0.26356E+00      982.00
  0.29990E+00  0.46281E+03    0.15000E+00  0.15000E+00 -0.30000E+00  0.00000E+00  0.00000E+00  0.00000E+00    0.15616E+03  0.15220E+03 -0.30837E+03  0.72988E+01  0.48127E+01 -0.24052E+00      982.00
  0.32489E+00  0.48255E+03    0.16250E+00  0.16250E+00 -0.32500E+00  0.00000E+00  0.00000E+00  0.00000E+00    0.16294E+03  0.15855E+03 -0.32149E+03  0.83352E+01  0.53392E+01 -0.80144E+00      982.00
  0.34987E+00  0.50089E+03    0.17500E+00  0.17500E+00 -0.35000E+00  0.00000E+00  0.00000E+00  0.00000E+00    0.16941E+03  0.16426E+03 -0.33367E+03  0.92951E+01  0.58365E+01 -0.13823E+01      982.00
  0.37485E+00  0.51598E+03    0.18750E+00  0.18750E+00 -0.37500E+00  0.00000E+00  0.00000E+00  0.00000E+00    0.17477E+03  0.16892E+03 -0.34369E+03  0.10163E+02  0.62190E+01 -0.19543E+01      982.00
  0.39983E+00  0.52885E+03    0.20000E+00  0.20000E+00 -0.40000E+00  0.00000E+00  0.00000E+00  0.00000E+00    0.17940E+03  0.17283E+03 -0.35223E+03  0.10932E+02  0.65065E+01 -0.24967E+01      982.00
  0.42480E+00  0.53000E+03    0.21250E+00  0.21250E+00 -0.42500E+00  0.00000E+00  0.00000E+00  0.00000E+00    0.17981E+03  0.17319E+03 -0.35300E+03  0.10827E+02  0.63014E+01 -0.30421E+01      982.00
  0.44978E+00  0.53148E+03    0.22500E+00  0.22500E+00 -0.45000E+00  0.00000E+00  0.00000E+00  0.00000E+00    0.18047E+03  0.17352E+03 -0.35399E+03  0.10725E+02  0.61334E+01 -0.33370E+01      982.00
  0.47476E+00  0.53280E+03    0.23750E+00  0.23750E+00 -0.47500E+00  0.00000E+00  0.00000E+00  0.00000E+00    0.18106E+03  0.17381E+03 -0.35487E+03  0.10638E+02  0.59993E+01 -0.35542E+01      982.00
  0.49973E+00  0.53396E+03    0.25000E+00  0.25000E+00 -0.50000E+00  0.00000E+00  0.00000E+00  0.00000E+00    0.18158E+03  0.17407E+03 -0.35565E+03  0.10545E+02  0.58706E+01 -0.37321E+01      982.00
  0.52471E+00  0.53512E+03    0.26250E+00  0.26250E+00 -0.52500E+00  0.00000E+00  0.00000E+00  0.00000E+00    0.18207E+03  0.17436E+03 -0.35643E+03  0.10392E+02  0.57032E+01 -0.38944E+01      982.00
  0.54969E+00  0.53586E+03    0.27500E+00  0.27500E+00 -0.55000E+00  0.00000E+00  0.00000E+00  0.00000E+00    0.18241E+03  0.17452E+03 -0.35692E+03  0.10301E+02  0.55967E+01 -0.40136E+01      982.00
  0.57467E+00  0.53646E+03    0.28750E+00  0.28750E+00 -0.57500E+00  0.00000E+00  0.00000E+00  0.00000E+00    0.18269E+03  0.17464E+03 -0.35733E+03  0.10214E+02  0.55016E+01 -0.41041E+01      982.00
  0.59965E+00  0.53692E+03    0.30000E+00  0.30000E+00 -0.60000E+00  0.00000E+00  0.00000E+00  0.00000E+00    0.18292E+03  0.17472E+03 -0.35764E+03  0.10127E+02  0.54114E+01 -0.41716E+01      982.00
  0.62462E+00  0.53741E+03    0.31250E+00  0.31250E+00 -0.62500E+00  0.00000E+00  0.00000E+00  0.00000E+00    0.18314E+03  0.17483E+03 -0.35797E+03  0.10081E+02  0.53590E+01 -0.42448E+01      982.00
  0.64960E+00  0.53780E+03    0.32500E+00  0.32500E+00 -0.65000E+00  0.00000E+00  0.00000E+00  0.00000E+00    0.18334E+03  0.17489E+03 -0.35823E+03  0.99862E+01  0.52716E+01 -0.42579E+01      982.00
  0.67458E+00  0.53785E+03    0.33750E+00  0.33750E+00 -0.67500E+00  0.00000E+00  0.00000E+00  0.00000E+00    0.18340E+03  0.17487E+03 -0.35827E+03  0.98406E+01  0.51318E+01 -0.42632E+01      982.00
  0.69956E+00  0.53775E+03    0.35000E+00  0.35000E+00 -0.70000E+00  0.00000E+00  0.00000E+00  0.00000E+00    0.18338E+03  0.17483E+03 -0.35821E+03  0.97504E+01  0.50510E+01 -0.42526E+01      982.00
  0.72454E+00  0.53758E+03    0.36250E+00  0.36250E+00 -0.72500E+00  0.00000E+00  0.00000E+00  0.00000E+00    0.18339E+03  0.17472E+03 -0.35810E+03  0.95788E+01  0.49218E+01 -0.41508E+01      982.00
  0.74952E+00  0.53711E+03    0.37500E+00  0.37500E+00 -0.75000E+00  0.00000E+00  0.00000E+00  0.00000E+00    0.18313E+03  0.17466E+03 -0.35779E+03  0.95651E+01  0.48851E+01 -0.42111E+01      982.00
  0.77450E+00  0.53686E+03    0.38750E+00  0.38750E+00 -0.77500E+00  0.00000E+00  0.00000E+00  0.00000E+00    0.18301E+03  0.17461E+03 -0.35762E+03  0.95444E+01  0.48717E+01 -0.42276E+01      982.00
  0.79948E+00  0.53658E+03    0.40000E+00  0.40000E+00 -0.80000E+00  0.00000E+00  0.00000E+00  0.00000E+00    0.18287E+03  0.17457E+03 -0.35745E+03  0.94759E+01  0.48089E+01 -0.42516E+01      982.00
  0.82446E+00  0.53617E+03    0.41250E+00  0.41250E+00 -0.82500E+00  0.00000E+00  0.00000E+00  0.00000E+00    0.18270E+03  0.17448E+03 -0.35718E+03  0.93944E+01  0.47396E+01 -0.42136E+01      982.00
  0.84944E+00  0.53568E+03    0.42500E+00  0.42500E+00 -0.85000E+00  0.00000E+00  0.00000E+00  0.00000E+00    0.18248E+03  0.17437E+03 -0.35685E+03  0.93145E+01  0.46722E+01 -0.41764E+01      982.00
  0.87442E+00  0.53537E+03    0.43750E+00  0.43750E+00 -0.87500E+00  0.00000E+00  0.00000E+00  0.00000E+00    0.18232E+03  0.17433E+03 -0.35665E+03  0.92463E+01  0.46070E+01 -0.41487E+01      982.00
  0.89941E+00  0.53480E+03    0.45000E+00  0.45000E+00 -0.90000E+00  0.00000E+00  0.00000E+00  0.00000E+00    0.18206E+03  0.17422E+03 -0.35628E+03  0.91721E+01  0.45451E+01 -0.41033E+01      982.00
  0.92439E+00  0.53418E+03    0.46250E+00  0.46250E+00 -0.92500E+00  0.00000E+00  0.00000E+00  0.00000E+00    0.18178E+03  0.17409E+03 -0.35587E+03  0.90993E+01  0.44851E+01 -0.40545E+01      982.00
  0.94937E+00  0.53353E+03    0.47500E+00  0.47500E+00 -0.95000E+00  0.00000E+00  0.00000E+00  0.00000E+00    0.18148E+03  0.17397E+03 -0.35544E+03  0.90275E+01  0.44266E+01 -0.40013E+01      982.00
  0.97435E+00  0.53294E+03    0.48750E+00  0.48750E+00 -0.97500E+00  0.00000E+00  0.00000E+00  0.00000E+00    0.18118E+03  0.17388E+03 -0.35505E+03  0.89595E+01  0.43739E+01 -0.39501E+01      982.00
  0.99934E+00  0.53223E+03    0.50000E+00  0.50000E+00 -0.10000E+01  0.00000E+00  0.00000E+00  0.00000E+00    0.18084E+03  0.17374E+03 -0.35458E+03  0.88897E+01  0.43179E+01 -0.38882E+01      982.00
