          Evm          Svm            E11          E22          E33          E23          E13          E12         SDEV11       SDEV22       SDEV33       SDEV23       SDEV13       SDEV12      TEMP
  0.00000E+00  0.14823E+03    0.00000E+00  0.00000E+00  0.00000E+00  0.00000E+00  0.00000E+00  0.00000E+00    0.52716E+02  0.41789E+02 -0.94505E+02  0.92167E+01  0.11892E+02  0.19228E+02      982.00
  0.23908E-01  0.14805E+03    0.12500E-01  0.12500E-01 -0.25000E-01  0.00000E+00  0.00000E+00  0.00000E+00    0.52389E+02  0.41715E+02 -0.94103E+02  0.83743E+01  0.11547E+02  0.20796E+02      982.00
  0.47744E-01  0.15322E+03    0.25000E-01  0.25000E-01 -0.50000E-01  0.00000E+00  0.00000E+00  0.00000E+00    0.53350E+02  0.43194E+02 -0.96543E+02  0.81780E+01  0.11533E+02  0.24684E+02      982.00
  0.71373E-01  0.16647E+03    0.37500E-01  0.37500E-01 -0.75000E-01  0.00000E+00  0.00000E+00  0.00000E+00    0.56197E+02  0.46787E+02 -0.10298E+03  0.86176E+01  0.11817E+02  0.32359E+02      982.00
  0.94571E-01  0.19308E+03    0.50000E-01  0.50000E-01 -0.10000E+00  0.00000E+00  0.00000E+00  0.00000E+00    0.61996E+02  0.53448E+02 -0.11544E+03  0.97014E+01  0.12407E+02  0.46527E+02      982.00
  0.11699E+00  0.24209E+03    0.62500E-01  0.62500E-01 -0.12500E+00  0.00000E+00  0.00000E+00  0.00000E+00    0.72213E+02  0.64864E+02 -0.13708E+03  0.11377E+02  0.13253E+02  0.71589E+02      982.00
  0.13823E+00  0.30430E+03    0.75000E-01  0.75000E-01 -0.15000E+00  0.00000E+00  0.00000E+00  0.00000E+00    0.82094E+02  0.81147E+02 -0.16324E+03  0.12444E+02  0.13430E+02  0.10269E+03      982.00
  0.15834E+00  0.34150E+03    0.87500E-01  0.87500E-01 -0.17500E+00  0.00000E+00  0.00000E+00  0.00000E+00    0.82419E+02  0.96089E+02 -0.17851E+03  0.12291E+02  0.12832E+02  0.12089E+03      982.00
  0.17794E+00  0.37192E+03    0.10000E+00  0.10000E+00 -0.20000E+00  0.00000E+00  0.00000E+00  0.00000E+00    0.81771E+02  0.10897E+03 -0.19074E+03  0.12181E+02  0.12425E+02  0.13541E+03      982.00
  0.19718E+00  0.40039E+03    0.11250E+00  0.11250E+00 -0.22500E+00  0.00000E+00  0.00000E+00  0.00000E+00    0.82305E+02  0.11980E+03 -0.20211E+03  0.12176E+02  0.12125E+02  0.14885E+03      982.00
  0.21611E+00  0.42441E+03    0.12500E+00  0.12500E+00 -0.25000E+00  0.00000E+00  0.00000E+00  0.00000E+00    0.83533E+02  0.12817E+03 -0.21170E+03  0.12214E+02  0.11820E+02  0.16013E+03      982.00
  0.23481E+00  0.44361E+03    0.13750E+00  0.13750E+00 -0.27500E+00  0.00000E+00  0.00000E+00  0.00000E+00    0.85101E+02  0.13430E+03 -0.21940E+03  0.12278E+02  0.11500E+02  0.16913E+03      982.00
  0.25336E+00  0.45879E+03    0.15000E+00  0.15000E+00 -0.30000E+00  0.00000E+00  0.00000E+00  0.00000E+00    0.86793E+02  0.13872E+03 -0.22551E+03  0.12356E+02  0.11181E+02  0.17626E+03      982.00
  0.27179E+00  0.47089E+03    0.16250E+00  0.16250E+00 -0.32500E+00  0.00000E+00  0.00000E+00  0.00000E+00    0.88518E+02  0.14188E+03 -0.23039E+03  0.12439E+02  0.10877E+02  0.18198E+03      982.00
  0.29014E+00  0.48106E+03    0.17500E+00  0.17500E+00 -0.35000E+00  0.00000E+00  0.00000E+00  0.00000E+00    0.90328E+02  0.14415E+03 -0.23448E+03  0.12495E+02  0.10571E+02  0.18684E+03      982.00
  0.30842E+00  0.48931E+03    0.18750E+00  0.18750E+00 -0.37500E+00  0.00000E+00  0.00000E+00  0.00000E+00    0.92055E+02  0.14574E+03 -0.23779E+03  0.12559E+02  0.10309E+02  0.19083E+03      982.00
  0.32664E+00  0.49637E+03    0.20000E+00  0.20000E+00 -0.40000E+00  0.00000E+00  0.00000E+00  0.00000E+00    0.93727E+02  0.14686E+03 -0.24059E+03  0.12601E+02  0.10066E+02  0.19429E+03      982.00
  0.34482E+00  0.50210E+03    0.21250E+00  0.21250E+00 -0.42500E+00  0.00000E+00  0.00000E+00  0.00000E+00    0.95099E+02  0.14774E+03 -0.24284E+03  0.12658E+02  0.98817E+01  0.19712E+03      982.00
  0.36295E+00  0.50717E+03    0.22500E+00  0.22500E+00 -0.45000E+00  0.00000E+00  0.00000E+00  0.00000E+00    0.96280E+02  0.14850E+03 -0.24478E+03  0.12677E+02  0.97237E+01  0.19966E+03      982.00
  0.38105E+00  0.51188E+03    0.23750E+00  0.23750E+00 -0.47500E+00  0.00000E+00  0.00000E+00  0.00000E+00    0.97449E+02  0.14910E+03 -0.24655E+03  0.12664E+02  0.95748E+01  0.20207E+03      982.00
  0.39912E+00  0.51605E+03    0.25000E+00  0.25000E+00 -0.50000E+00  0.00000E+00  0.00000E+00  0.00000E+00    0.98518E+02  0.14953E+03 -0.24805E+03  0.12640E+02  0.94432E+01  0.20426E+03      982.00
  0.41714E+00  0.51993E+03    0.26250E+00  0.26250E+00 -0.52500E+00  0.00000E+00  0.00000E+00  0.00000E+00    0.99463E+02  0.14993E+03 -0.24940E+03  0.12602E+02  0.93362E+01  0.20634E+03      982.00
  0.43513E+00  0.52349E+03    0.27500E+00  0.27500E+00 -0.55000E+00  0.00000E+00  0.00000E+00  0.00000E+00    0.10029E+03  0.15028E+03 -0.25058E+03  0.12559E+02  0.92514E+01  0.20830E+03      982.00
  0.45308E+00  0.52674E+03    0.28750E+00  0.28750E+00 -0.57500E+00  0.00000E+00  0.00000E+00  0.00000E+00    0.10104E+03  0.15055E+03 -0.25159E+03  0.12518E+02  0.91844E+01  0.21014E+03      982.00
  0.47099E+00  0.52801E+03    0.30000E+00  0.30000E+00 -0.60000E+00  0.00000E+00  0.00000E+00  0.00000E+00    0.10143E+03  0.15027E+03 -0.25169E+03  0.12439E+02  0.91144E+01  0.21115E+03      982.00
  0.48887E+00  0.52896E+03    0.31250E+00  0.31250E+00 -0.62500E+00  0.00000E+00  0.00000E+00  0.00000E+00    0.10164E+03  0.15001E+03 -0.25165E+03  0.12348E+02  0.90645E+01  0.21202E+03      982.00
  0.50671E+00  0.52997E+03    0.32500E+00  0.32500E+00 -0.65000E+00  0.00000E+00  0.00000E+00  0.00000E+00    0.10181E+03  0.14980E+03 -0.25161E+03  0.12259E+02  0.90263E+01  0.21292E+03      982.00
  0.52451E+00  0.53102E+03    0.33750E+00  0.33750E+00 -0.67500E+00  0.00000E+00  0.00000E+00  0.00000E+00    0.10193E+03  0.14963E+03 -0.25156E+03  0.12173E+02  0.89973E+01  0.21386E+03      982.00
  0.54227E+00  0.53230E+03    0.35000E+00  0.35000E+00 -0.70000E+00  0.00000E+00  0.00000E+00  0.00000E+00    0.10210E+03  0.14947E+03 -0.25157E+03  0.12084E+02  0.89580E+01  0.21493E+03      982.00
  0.56000E+00  0.53343E+03    0.36250E+00  0.36250E+00 -0.72500E+00  0.00000E+00  0.00000E+00  0.00000E+00    0.10214E+03  0.14936E+03 -0.25150E+03  0.12000E+02  0.89410E+01  0.21594E+03      982.00
  0.57768E+00  0.53459E+03    0.37500E+00  0.37500E+00 -0.75000E+00  0.00000E+00  0.00000E+00  0.00000E+00    0.10214E+03  0.14927E+03 -0.25141E+03  0.11916E+02  0.89269E+01  0.21698E+03      982.00
  0.59531E+00  0.53577E+03    0.38750E+00  0.38750E+00 -0.77500E+00  0.00000E+00  0.00000E+00  0.00000E+00    0.10209E+03  0.14921E+03 -0.25130E+03  0.11828E+02  0.89125E+01  0.21805E+03      982.00
  0.61290E+00  0.53696E+03    0.40000E+00  0.40000E+00 -0.80000E+00  0.00000E+00  0.00000E+00  0.00000E+00    0.10201E+03  0.14916E+03 -0.25117E+03  0.11734E+02  0.88944E+01  0.21913E+03      982.00
  0.63044E+00  0.53815E+03    0.41250E+00  0.41250E+00 -0.82500E+00  0.00000E+00  0.00000E+00  0.00000E+00    0.10189E+03  0.14914E+03 -0.25103E+03  0.11631E+02  0.88690E+01  0.22024E+03      982.00
  0.64794E+00  0.53970E+03    0.42500E+00  0.42500E+00 -0.85000E+00  0.00000E+00  0.00000E+00  0.00000E+00    0.10182E+03  0.14917E+03 -0.25099E+03  0.11477E+02  0.88052E+01  0.22153E+03      982.00
  0.66537E+00  0.54089E+03    0.43750E+00  0.43750E+00 -0.87500E+00  0.00000E+00  0.00000E+00  0.00000E+00    0.10163E+03  0.14919E+03 -0.25081E+03  0.11335E+02  0.87478E+01  0.22265E+03      982.00
  0.68276E+00  0.54206E+03    0.45000E+00  0.45000E+00 -0.90000E+00  0.00000E+00  0.00000E+00  0.00000E+00    0.10138E+03  0.14921E+03 -0.25060E+03  0.11200E+02  0.86892E+01  0.22377E+03      982.00
  0.70010E+00  0.54322E+03    0.46250E+00  0.46250E+00 -0.92500E+00  0.00000E+00  0.00000E+00  0.00000E+00    0.10112E+03  0.14926E+03 -0.25037E+03  0.11031E+02  0.86014E+01  0.22488E+03      982.00
  0.71738E+00  0.54436E+03    0.47500E+00  0.47500E+00 -0.95000E+00  0.00000E+00  0.00000E+00  0.00000E+00    0.10083E+03  0.14931E+03 -0.25014E+03  0.10841E+02  0.84911E+01  0.22599E+03      982.00
  0.73462E+00  0.54547E+03    0.48750E+00  0.48750E+00 -0.97500E+00  0.00000E+00  0.00000E+00  0.00000E+00    0.10051E+03  0.14938E+03 -0.24989E+03  0.10628E+02  0.83572E+01  0.22708E+03      982.00
  0.75179E+00  0.54657E+03    0.50000E+00  0.50000E+00 -0.10000E+01  0.00000E+00  0.00000E+00  0.00000E+00    0.10018E+03  0.14946E+03 -0.24964E+03  0.10394E+02  0.81994E+01  0.22816E+03      982.00
