          Evm          Svm            E11          E22          E33          E23          E13          E12         SDEV11       SDEV22       SDEV33       SDEV23       SDEV13       SDEV12      TEMP
  0.00000E+00  0.16621E+03    0.00000E+00  0.00000E+00  0.00000E+00  0.00000E+00  0.00000E+00  0.00000E+00    0.48710E+02  0.56587E+02 -0.10530E+03  0.14975E+02  0.11102E+02  0.23019E+02      982.00
  0.23757E-01  0.16659E+03    0.12500E-01  0.12500E-01 -0.25000E-01  0.00000E+00  0.00000E+00  0.00000E+00    0.49136E+02  0.56055E+02 -0.10519E+03  0.14220E+02  0.10487E+02  0.25054E+02      982.00
  0.47436E-01  0.17177E+03    0.25000E-01  0.25000E-01 -0.50000E-01  0.00000E+00  0.00000E+00  0.00000E+00    0.51127E+02  0.56514E+02 -0.10764E+03  0.13952E+02  0.10555E+02  0.28836E+02      982.00
  0.70936E-01  0.18251E+03    0.37500E-01  0.37500E-01 -0.75000E-01  0.00000E+00  0.00000E+00  0.00000E+00    0.54913E+02  0.58011E+02 -0.11292E+03  0.14061E+02  0.11191E+02  0.34850E+02      982.00
  0.94138E-01  0.19931E+03    0.50000E-01  0.50000E-01 -0.10000E+00  0.00000E+00  0.00000E+00  0.00000E+00    0.60576E+02  0.60520E+02 -0.12110E+03  0.14372E+02  0.12169E+02  0.43452E+02      982.00
  0.11692E+00  0.22254E+03    0.62500E-01  0.62500E-01 -0.12500E+00  0.00000E+00  0.00000E+00  0.00000E+00    0.68091E+02  0.64024E+02 -0.13212E+03  0.14729E+02  0.13272E+02  0.54956E+02      982.00
  0.13918E+00  0.25187E+03    0.75000E-01  0.75000E-01 -0.15000E+00  0.00000E+00  0.00000E+00  0.00000E+00    0.77181E+02  0.68434E+02 -0.14561E+03  0.14961E+02  0.14255E+02  0.69266E+02      982.00
  0.16086E+00  0.28552E+03    0.87500E-01  0.87500E-01 -0.17500E+00  0.00000E+00  0.00000E+00  0.00000E+00    0.87245E+02  0.73431E+02 -0.16068E+03  0.14898E+02  0.14899E+02  0.85554E+02      982.00
  0.18197E+00  0.32009E+03    0.10000E+00  0.10000E+00 -0.20000E+00  0.00000E+00  0.00000E+00  0.00000E+00    0.97400E+02  0.78427E+02 -0.17583E+03  0.14444E+02  0.15083E+02  0.10218E+03      982.00
  0.20257E+00  0.35186E+03    0.11250E+00  0.11250E+00 -0.22500E+00  0.00000E+00  0.00000E+00  0.00000E+00    0.10675E+03  0.82821E+02 -0.18957E+03  0.13643E+02  0.14830E+02  0.11733E+03      982.00
  0.22277E+00  0.37912E+03    0.12500E+00  0.12500E+00 -0.25000E+00  0.00000E+00  0.00000E+00  0.00000E+00    0.11494E+03  0.86361E+02 -0.20130E+03  0.12625E+02  0.14262E+02  0.13021E+03      982.00
  0.24268E+00  0.40170E+03    0.13750E+00  0.13750E+00 -0.27500E+00  0.00000E+00  0.00000E+00  0.00000E+00    0.12200E+03  0.89017E+02 -0.21102E+03  0.11497E+02  0.13492E+02  0.14073E+03      982.00
  0.26238E+00  0.42010E+03    0.15000E+00  0.15000E+00 -0.30000E+00  0.00000E+00  0.00000E+00  0.00000E+00    0.12807E+03  0.90922E+02 -0.21899E+03  0.10344E+02  0.12593E+02  0.14916E+03      982.00
  0.28193E+00  0.43507E+03    0.16250E+00  0.16250E+00 -0.32500E+00  0.00000E+00  0.00000E+00  0.00000E+00    0.13330E+03  0.92258E+02 -0.22556E+03  0.92126E+01  0.11609E+02  0.15587E+03      982.00
  0.30137E+00  0.44681E+03    0.17500E+00  0.17500E+00 -0.35000E+00  0.00000E+00  0.00000E+00  0.00000E+00    0.13770E+03  0.93153E+02 -0.23085E+03  0.81412E+01  0.10598E+02  0.16094E+03      982.00
  0.32075E+00  0.45623E+03    0.18750E+00  0.18750E+00 -0.37500E+00  0.00000E+00  0.00000E+00  0.00000E+00    0.14141E+03  0.93785E+02 -0.23520E+03  0.71314E+01  0.95543E+01  0.16487E+03      982.00
  0.34008E+00  0.46300E+03    0.20000E+00  0.20000E+00 -0.40000E+00  0.00000E+00  0.00000E+00  0.00000E+00    0.14433E+03  0.94186E+02 -0.23851E+03  0.62233E+01  0.85533E+01  0.16749E+03      982.00
  0.35940E+00  0.46742E+03    0.21250E+00  0.21250E+00 -0.42500E+00  0.00000E+00  0.00000E+00  0.00000E+00    0.14663E+03  0.94265E+02 -0.24090E+03  0.54300E+01  0.76332E+01  0.16891E+03      982.00
  0.37872E+00  0.46895E+03    0.22500E+00  0.22500E+00 -0.45000E+00  0.00000E+00  0.00000E+00  0.00000E+00    0.14776E+03  0.94503E+02 -0.24226E+03  0.49065E+01  0.70073E+01  0.16884E+03      982.00
  0.39809E+00  0.46818E+03    0.23750E+00  0.23750E+00 -0.47500E+00  0.00000E+00  0.00000E+00  0.00000E+00    0.14800E+03  0.94807E+02 -0.24281E+03  0.45877E+01  0.66288E+01  0.16756E+03      982.00
  0.41754E+00  0.46670E+03    0.25000E+00  0.25000E+00 -0.50000E+00  0.00000E+00  0.00000E+00  0.00000E+00    0.14791E+03  0.95185E+02 -0.24309E+03  0.42834E+01  0.62481E+01  0.16592E+03      982.00
  0.43708E+00  0.46473E+03    0.26250E+00  0.26250E+00 -0.52500E+00  0.00000E+00  0.00000E+00  0.00000E+00    0.14772E+03  0.95504E+02 -0.24323E+03  0.39717E+01  0.58408E+01  0.16398E+03      982.00
  0.45670E+00  0.45899E+03    0.27500E+00  0.27500E+00 -0.55000E+00  0.00000E+00  0.00000E+00  0.00000E+00    0.14636E+03  0.95352E+02 -0.24171E+03  0.38142E+01  0.56022E+01  0.16034E+03      982.00
  0.47645E+00  0.45345E+03    0.28750E+00  0.28750E+00 -0.57500E+00  0.00000E+00  0.00000E+00  0.00000E+00    0.14507E+03  0.95205E+02 -0.24027E+03  0.35952E+01  0.52832E+01  0.15677E+03      982.00
  0.49632E+00  0.44815E+03    0.30000E+00  0.30000E+00 -0.60000E+00  0.00000E+00  0.00000E+00  0.00000E+00    0.14387E+03  0.95083E+02 -0.23896E+03  0.33332E+01  0.49102E+01  0.15326E+03      982.00
  0.51632E+00  0.44307E+03    0.31250E+00  0.31250E+00 -0.62500E+00  0.00000E+00  0.00000E+00  0.00000E+00    0.14279E+03  0.94962E+02 -0.23775E+03  0.30542E+01  0.45079E+01  0.14980E+03      982.00
  0.53644E+00  0.43802E+03    0.32500E+00  0.32500E+00 -0.65000E+00  0.00000E+00  0.00000E+00  0.00000E+00    0.14173E+03  0.94862E+02 -0.23660E+03  0.27856E+01  0.41182E+01  0.14628E+03      982.00
  0.55669E+00  0.43298E+03    0.33750E+00  0.33750E+00 -0.67500E+00  0.00000E+00  0.00000E+00  0.00000E+00    0.14069E+03  0.94783E+02 -0.23548E+03  0.25382E+01  0.37545E+01  0.14268E+03      982.00
  0.57709E+00  0.42802E+03    0.35000E+00  0.35000E+00 -0.70000E+00  0.00000E+00  0.00000E+00  0.00000E+00    0.13970E+03  0.94721E+02 -0.23442E+03  0.23099E+01  0.34188E+01  0.13903E+03      982.00
  0.59763E+00  0.42290E+03    0.36250E+00  0.36250E+00 -0.72500E+00  0.00000E+00  0.00000E+00  0.00000E+00    0.13866E+03  0.94693E+02 -0.23335E+03  0.21254E+01  0.31397E+01  0.13520E+03      982.00
  0.61832E+00  0.41779E+03    0.37500E+00  0.37500E+00 -0.75000E+00  0.00000E+00  0.00000E+00  0.00000E+00    0.13761E+03  0.94703E+02 -0.23231E+03  0.19753E+01  0.29094E+01  0.13128E+03      982.00
  0.63917E+00  0.41277E+03    0.38750E+00  0.38750E+00 -0.77500E+00  0.00000E+00  0.00000E+00  0.00000E+00    0.13659E+03  0.94737E+02 -0.23133E+03  0.18560E+01  0.27210E+01  0.12731E+03      982.00
  0.66019E+00  0.40777E+03    0.40000E+00  0.40000E+00 -0.80000E+00  0.00000E+00  0.00000E+00  0.00000E+00    0.13557E+03  0.94804E+02 -0.23038E+03  0.17744E+01  0.25855E+01  0.12327E+03      982.00
  0.68137E+00  0.40286E+03    0.41250E+00  0.41250E+00 -0.82500E+00  0.00000E+00  0.00000E+00  0.00000E+00    0.13456E+03  0.94920E+02 -0.22948E+03  0.17316E+01  0.25021E+01  0.11917E+03      982.00
  0.70273E+00  0.39796E+03    0.42500E+00  0.42500E+00 -0.85000E+00  0.00000E+00  0.00000E+00  0.00000E+00    0.13353E+03  0.95080E+02 -0.22861E+03  0.17345E+01  0.24806E+01  0.11496E+03      982.00
  0.72427E+00  0.39334E+03    0.43750E+00  0.43750E+00 -0.87500E+00  0.00000E+00  0.00000E+00  0.00000E+00    0.13255E+03  0.95289E+02 -0.22784E+03  0.17633E+01  0.24961E+01  0.11082E+03      982.00
  0.74600E+00  0.38891E+03    0.45000E+00  0.45000E+00 -0.90000E+00  0.00000E+00  0.00000E+00  0.00000E+00    0.13161E+03  0.95549E+02 -0.22716E+03  0.18242E+01  0.25556E+01  0.10669E+03      982.00
  0.76790E+00  0.38456E+03    0.46250E+00  0.46250E+00 -0.92500E+00  0.00000E+00  0.00000E+00  0.00000E+00    0.13063E+03  0.95879E+02 -0.22651E+03  0.19369E+01  0.26884E+01  0.10249E+03      982.00
  0.78999E+00  0.38067E+03    0.47500E+00  0.47500E+00 -0.95000E+00  0.00000E+00  0.00000E+00  0.00000E+00    0.12978E+03  0.96246E+02 -0.22602E+03  0.20510E+01  0.28215E+01  0.98465E+02      982.00
  0.81225E+00  0.37708E+03    0.48750E+00  0.48750E+00 -0.97500E+00  0.00000E+00  0.00000E+00  0.00000E+00    0.12898E+03  0.96665E+02 -0.22565E+03  0.21871E+01  0.29847E+01  0.94523E+02      982.00
  0.83469E+00  0.37381E+03    0.50000E+00  0.50000E+00 -0.10000E+01  0.00000E+00  0.00000E+00  0.00000E+00    0.12825E+03  0.97136E+02 -0.22538E+03  0.23413E+01  0.31731E+01  0.90674E+02      982.00
