          Evm          Svm            E11          E22          E33          E23          E13          E12         SDEV11       SDEV22       SDEV33       SDEV23       SDEV13       SDEV12      TEMP
  0.00000E+00  0.17452E+03    0.00000E+00  0.00000E+00  0.00000E+00  0.00000E+00  0.00000E+00  0.00000E+00    0.56397E+02  0.48613E+02 -0.10501E+03 -0.52157E+01 -0.77150E+01  0.42193E+02      982.00
  0.22564E-01  0.17418E+03    0.12500E-01  0.12500E-01 -0.25000E-01  0.00000E+00  0.00000E+00  0.00000E+00    0.54424E+02  0.50086E+02 -0.10451E+03 -0.41181E+01 -0.59872E+01  0.43162E+02      982.00
  0.45065E-01  0.17787E+03    0.25000E-01  0.25000E-01 -0.50000E-01  0.00000E+00  0.00000E+00  0.00000E+00    0.53728E+02  0.51947E+02 -0.10567E+03 -0.35448E+01 -0.50900E+01  0.46162E+02      982.00
  0.67345E-01  0.18729E+03    0.37500E-01  0.37500E-01 -0.75000E-01  0.00000E+00  0.00000E+00  0.00000E+00    0.54555E+02  0.54640E+02 -0.10920E+03 -0.33692E+01 -0.46471E+01  0.52129E+02      982.00
  0.89208E-01  0.20322E+03    0.50000E-01  0.50000E-01 -0.10000E+00  0.00000E+00  0.00000E+00  0.00000E+00    0.56834E+02  0.58423E+02 -0.11526E+03 -0.35056E+01 -0.44877E+01  0.61403E+02      982.00
  0.11048E+00  0.22703E+03    0.62500E-01  0.62500E-01 -0.12500E+00  0.00000E+00  0.00000E+00  0.00000E+00    0.60654E+02  0.63610E+02 -0.12426E+03 -0.39347E+01 -0.45425E+01  0.74579E+02      982.00
  0.13100E+00  0.26060E+03    0.75000E-01  0.75000E-01 -0.15000E+00  0.00000E+00  0.00000E+00  0.00000E+00    0.66176E+02  0.70580E+02 -0.13676E+03 -0.46154E+01 -0.47825E+01  0.92527E+02      982.00
  0.15068E+00  0.30367E+03    0.87500E-01  0.87500E-01 -0.17500E+00  0.00000E+00  0.00000E+00  0.00000E+00    0.73216E+02  0.79305E+02 -0.15252E+03 -0.54807E+01 -0.51691E+01  0.11500E+03      982.00
  0.16951E+00  0.35144E+03    0.10000E+00  0.10000E+00 -0.20000E+00  0.00000E+00  0.00000E+00  0.00000E+00    0.80867E+02  0.88913E+02 -0.16978E+03 -0.63783E+01 -0.56019E+01  0.13951E+03      982.00
  0.18763E+00  0.39563E+03    0.11250E+00  0.11250E+00 -0.22500E+00  0.00000E+00  0.00000E+00  0.00000E+00    0.87785E+02  0.97883E+02 -0.18567E+03 -0.71565E+01 -0.59520E+01  0.16189E+03      982.00
  0.20523E+00  0.43216E+03    0.12500E+00  0.12500E+00 -0.25000E+00  0.00000E+00  0.00000E+00  0.00000E+00    0.93405E+02  0.10541E+03 -0.19882E+03 -0.77586E+01 -0.61796E+01  0.18021E+03      982.00
  0.22248E+00  0.46067E+03    0.13750E+00  0.13750E+00 -0.27500E+00  0.00000E+00  0.00000E+00  0.00000E+00    0.97748E+02  0.11138E+03 -0.20913E+03 -0.81989E+01 -0.63004E+01  0.19438E+03      982.00
  0.23951E+00  0.48295E+03    0.15000E+00  0.15000E+00 -0.30000E+00  0.00000E+00  0.00000E+00  0.00000E+00    0.10114E+03  0.11611E+03 -0.21725E+03 -0.85080E+01 -0.63516E+01  0.20538E+03      982.00
  0.25637E+00  0.50040E+03    0.16250E+00  0.16250E+00 -0.32500E+00  0.00000E+00  0.00000E+00  0.00000E+00    0.10382E+03  0.11984E+03 -0.22366E+03 -0.87130E+01 -0.63575E+01  0.21393E+03      982.00
  0.27314E+00  0.51414E+03    0.17500E+00  0.17500E+00 -0.35000E+00  0.00000E+00  0.00000E+00  0.00000E+00    0.10594E+03  0.12280E+03 -0.22873E+03 -0.88284E+01 -0.63351E+01  0.22064E+03      982.00
  0.28982E+00  0.52520E+03    0.18750E+00  0.18750E+00 -0.37500E+00  0.00000E+00  0.00000E+00  0.00000E+00    0.10766E+03  0.12518E+03 -0.23284E+03 -0.88677E+01 -0.62981E+01  0.22603E+03      982.00
  0.30644E+00  0.53420E+03    0.20000E+00  0.20000E+00 -0.40000E+00  0.00000E+00  0.00000E+00  0.00000E+00    0.10907E+03  0.12712E+03 -0.23619E+03 -0.88449E+01 -0.62532E+01  0.23041E+03      982.00
  0.32302E+00  0.54195E+03    0.21250E+00  0.21250E+00 -0.42500E+00  0.00000E+00  0.00000E+00  0.00000E+00    0.11028E+03  0.12876E+03 -0.23904E+03 -0.87533E+01 -0.62148E+01  0.23420E+03      982.00
  0.33956E+00  0.54788E+03    0.22500E+00  0.22500E+00 -0.45000E+00  0.00000E+00  0.00000E+00  0.00000E+00    0.11124E+03  0.13003E+03 -0.24127E+03 -0.86533E+01 -0.61590E+01  0.23706E+03      982.00
  0.35608E+00  0.55288E+03    0.23750E+00  0.23750E+00 -0.47500E+00  0.00000E+00  0.00000E+00  0.00000E+00    0.11207E+03  0.13108E+03 -0.24315E+03 -0.85203E+01 -0.61026E+01  0.23948E+03      982.00
  0.37257E+00  0.55742E+03    0.25000E+00  0.25000E+00 -0.50000E+00  0.00000E+00  0.00000E+00  0.00000E+00    0.11283E+03  0.13199E+03 -0.24482E+03 -0.83489E+01 -0.60509E+01  0.24170E+03      982.00
  0.38904E+00  0.56102E+03    0.26250E+00  0.26250E+00 -0.52500E+00  0.00000E+00  0.00000E+00  0.00000E+00    0.11347E+03  0.13271E+03 -0.24618E+03 -0.81714E+01 -0.59938E+01  0.24344E+03      982.00
  0.40550E+00  0.56416E+03    0.27500E+00  0.27500E+00 -0.55000E+00  0.00000E+00  0.00000E+00  0.00000E+00    0.11404E+03  0.13332E+03 -0.24737E+03 -0.79768E+01 -0.59374E+01  0.24497E+03      982.00
  0.42194E+00  0.56691E+03    0.28750E+00  0.28750E+00 -0.57500E+00  0.00000E+00  0.00000E+00  0.00000E+00    0.11455E+03  0.13384E+03 -0.24840E+03 -0.77701E+01 -0.58809E+01  0.24630E+03      982.00
  0.43837E+00  0.56993E+03    0.30000E+00  0.30000E+00 -0.60000E+00  0.00000E+00  0.00000E+00  0.00000E+00    0.11513E+03  0.13436E+03 -0.24950E+03 -0.75440E+01 -0.58310E+01  0.24780E+03      982.00
  0.45479E+00  0.56922E+03    0.31250E+00  0.31250E+00 -0.62500E+00  0.00000E+00  0.00000E+00  0.00000E+00    0.11524E+03  0.13399E+03 -0.24924E+03 -0.72283E+01 -0.56789E+01  0.24747E+03      982.00
  0.47120E+00  0.56937E+03    0.32500E+00  0.32500E+00 -0.65000E+00  0.00000E+00  0.00000E+00  0.00000E+00    0.11538E+03  0.13386E+03 -0.24924E+03 -0.69754E+01 -0.55916E+01  0.24760E+03      982.00
  0.48762E+00  0.56936E+03    0.33750E+00  0.33750E+00 -0.67500E+00  0.00000E+00  0.00000E+00  0.00000E+00    0.11546E+03  0.13373E+03 -0.24919E+03 -0.67295E+01 -0.55027E+01  0.24764E+03      982.00
  0.50403E+00  0.56936E+03    0.35000E+00  0.35000E+00 -0.70000E+00  0.00000E+00  0.00000E+00  0.00000E+00    0.11554E+03  0.13361E+03 -0.24915E+03 -0.64917E+01 -0.54163E+01  0.24768E+03      982.00
  0.52044E+00  0.56936E+03    0.36250E+00  0.36250E+00 -0.72500E+00  0.00000E+00  0.00000E+00  0.00000E+00    0.11561E+03  0.13350E+03 -0.24911E+03 -0.62619E+01 -0.53315E+01  0.24772E+03      982.00
  0.53685E+00  0.56936E+03    0.37500E+00  0.37500E+00 -0.75000E+00  0.00000E+00  0.00000E+00  0.00000E+00    0.11568E+03  0.13339E+03 -0.24907E+03 -0.60402E+01 -0.52479E+01  0.24776E+03      982.00
  0.55325E+00  0.56935E+03    0.38750E+00  0.38750E+00 -0.77500E+00  0.00000E+00  0.00000E+00  0.00000E+00    0.11575E+03  0.13328E+03 -0.24903E+03 -0.58264E+01 -0.51653E+01  0.24780E+03      982.00
  0.56966E+00  0.56935E+03    0.40000E+00  0.40000E+00 -0.80000E+00  0.00000E+00  0.00000E+00  0.00000E+00    0.11582E+03  0.13318E+03 -0.24900E+03 -0.56204E+01 -0.50834E+01  0.24783E+03      982.00
  0.58606E+00  0.56935E+03    0.41250E+00  0.41250E+00 -0.82500E+00  0.00000E+00  0.00000E+00  0.00000E+00    0.11588E+03  0.13308E+03 -0.24896E+03 -0.54220E+01 -0.50022E+01  0.24786E+03      982.00
  0.60245E+00  0.56935E+03    0.42500E+00  0.42500E+00 -0.85000E+00  0.00000E+00  0.00000E+00  0.00000E+00    0.11595E+03  0.13298E+03 -0.24893E+03 -0.52310E+01 -0.49216E+01  0.24789E+03      982.00
  0.61885E+00  0.56934E+03    0.43750E+00  0.43750E+00 -0.87500E+00  0.00000E+00  0.00000E+00  0.00000E+00    0.11602E+03  0.13289E+03 -0.24890E+03 -0.50470E+01 -0.48416E+01  0.24792E+03      982.00
  0.63524E+00  0.56934E+03    0.45000E+00  0.45000E+00 -0.90000E+00  0.00000E+00  0.00000E+00  0.00000E+00    0.11611E+03  0.13276E+03 -0.24887E+03 -0.47787E+01 -0.47149E+01  0.24796E+03      982.00
  0.65164E+00  0.56934E+03    0.46250E+00  0.46250E+00 -0.92500E+00  0.00000E+00  0.00000E+00  0.00000E+00    0.11616E+03  0.13269E+03 -0.24885E+03 -0.47008E+01 -0.46839E+01  0.24798E+03      982.00
  0.66803E+00  0.56934E+03    0.47500E+00  0.47500E+00 -0.95000E+00  0.00000E+00  0.00000E+00  0.00000E+00    0.11625E+03  0.13258E+03 -0.24883E+03 -0.44528E+01 -0.45621E+01  0.24801E+03      982.00
  0.68442E+00  0.56935E+03    0.48750E+00  0.48750E+00 -0.97500E+00  0.00000E+00  0.00000E+00  0.00000E+00    0.11633E+03  0.13248E+03 -0.24881E+03 -0.42935E+01 -0.44835E+01  0.24803E+03      982.00
  0.70080E+00  0.56934E+03    0.50000E+00  0.50000E+00 -0.10000E+01  0.00000E+00  0.00000E+00  0.00000E+00    0.11642E+03  0.13237E+03 -0.24879E+03 -0.42257E+01 -0.44460E+01  0.24805E+03      982.00
