          Evm          Svm            E11          E22          E33          E23          E13          E12         SDEV11       SDEV22       SDEV33       SDEV23       SDEV13       SDEV12      TEMP
  0.00000E+00  0.15284E+03    0.00000E+00  0.00000E+00  0.00000E+00  0.00000E+00  0.00000E+00  0.00000E+00    0.52893E+02  0.45605E+02 -0.98499E+02  0.99359E+01  0.49954E+01  0.19321E+02      982.00
  0.24167E-01  0.16155E+03    0.12500E-01  0.12500E-01 -0.25000E-01  0.00000E+00  0.00000E+00  0.00000E+00    0.51378E+02  0.51659E+02 -0.10304E+03  0.94294E+01  0.54662E+01  0.24853E+02      982.00
  0.48085E-01  0.17424E+03    0.25000E-01  0.25000E-01 -0.50000E-01  0.00000E+00  0.00000E+00  0.00000E+00    0.48021E+02  0.61207E+02 -0.10923E+03  0.80316E+01  0.59953E+01  0.32053E+02      982.00
  0.71594E-01  0.17928E+03    0.37500E-01  0.37500E-01 -0.75000E-01  0.00000E+00  0.00000E+00  0.00000E+00    0.45200E+02  0.65943E+02 -0.11114E+03  0.65505E+01  0.63261E+01  0.35484E+02      982.00
  0.94841E-01  0.18638E+03    0.50000E-01  0.50000E-01 -0.10000E+00  0.00000E+00  0.00000E+00  0.00000E+00    0.44410E+02  0.69666E+02 -0.11408E+03  0.66455E+01  0.67558E+01  0.39625E+02      982.00
  0.11779E+00  0.20013E+03    0.62500E-01  0.62500E-01 -0.12500E+00  0.00000E+00  0.00000E+00  0.00000E+00    0.44815E+02  0.75298E+02 -0.12011E+03  0.75213E+01  0.73390E+01  0.46772E+02      982.00
  0.14030E+00  0.22141E+03    0.75000E-01  0.75000E-01 -0.15000E+00  0.00000E+00  0.00000E+00  0.00000E+00    0.46315E+02  0.83200E+02 -0.12952E+03  0.89159E+01  0.80866E+01  0.57231E+02      982.00
  0.16224E+00  0.25113E+03    0.87500E-01  0.87500E-01 -0.17500E+00  0.00000E+00  0.00000E+00  0.00000E+00    0.48801E+02  0.93681E+02 -0.14248E+03  0.10621E+02  0.89999E+01  0.71408E+02      982.00
  0.18351E+00  0.28851E+03    0.10000E+00  0.10000E+00 -0.20000E+00  0.00000E+00  0.00000E+00  0.00000E+00    0.52232E+02  0.10627E+03 -0.15850E+03  0.12415E+02  0.10001E+02  0.89000E+02      982.00
  0.20411E+00  0.32806E+03    0.11250E+00  0.11250E+00 -0.22500E+00  0.00000E+00  0.00000E+00  0.00000E+00    0.56367E+02  0.11890E+03 -0.17527E+03  0.14022E+02  0.10805E+02  0.10745E+03      982.00
  0.22415E+00  0.36481E+03    0.12500E+00  0.12500E+00 -0.25000E+00  0.00000E+00  0.00000E+00  0.00000E+00    0.60848E+02  0.12987E+03 -0.19072E+03  0.15180E+02  0.11327E+02  0.12463E+03      982.00
  0.24375E+00  0.39515E+03    0.13750E+00  0.13750E+00 -0.27500E+00  0.00000E+00  0.00000E+00  0.00000E+00    0.65207E+02  0.13826E+03 -0.20347E+03  0.15891E+02  0.11522E+02  0.13884E+03      982.00
  0.26306E+00  0.41904E+03    0.15000E+00  0.15000E+00 -0.30000E+00  0.00000E+00  0.00000E+00  0.00000E+00    0.69090E+02  0.14445E+03 -0.21354E+03  0.16243E+02  0.11475E+02  0.15005E+03      982.00
  0.28217E+00  0.43761E+03    0.16250E+00  0.16250E+00 -0.32500E+00  0.00000E+00  0.00000E+00  0.00000E+00    0.72462E+02  0.14893E+03 -0.22139E+03  0.16339E+02  0.11282E+02  0.15880E+03      982.00
  0.30114E+00  0.45211E+03    0.17500E+00  0.17500E+00 -0.35000E+00  0.00000E+00  0.00000E+00  0.00000E+00    0.75373E+02  0.15217E+03 -0.22754E+03  0.16254E+02  0.11009E+02  0.16566E+03      982.00
  0.32002E+00  0.46356E+03    0.18750E+00  0.18750E+00 -0.37500E+00  0.00000E+00  0.00000E+00  0.00000E+00    0.77912E+02  0.15449E+03 -0.23240E+03  0.16035E+02  0.10700E+02  0.17112E+03      982.00
  0.33882E+00  0.47270E+03    0.20000E+00  0.20000E+00 -0.40000E+00  0.00000E+00  0.00000E+00  0.00000E+00    0.80177E+02  0.15611E+03 -0.23629E+03  0.15716E+02  0.10383E+02  0.17554E+03      982.00
  0.35756E+00  0.48012E+03    0.21250E+00  0.21250E+00 -0.42500E+00  0.00000E+00  0.00000E+00  0.00000E+00    0.82206E+02  0.15724E+03 -0.23944E+03  0.15317E+02  0.10071E+02  0.17915E+03      982.00
  0.37626E+00  0.48617E+03    0.22500E+00  0.22500E+00 -0.45000E+00  0.00000E+00  0.00000E+00  0.00000E+00    0.84136E+02  0.15788E+03 -0.24202E+03  0.14858E+02  0.97781E+01  0.18216E+03      982.00
  0.39493E+00  0.49118E+03    0.23750E+00  0.23750E+00 -0.47500E+00  0.00000E+00  0.00000E+00  0.00000E+00    0.85927E+02  0.15824E+03 -0.24417E+03  0.14347E+02  0.95013E+01  0.18467E+03      982.00
  0.41357E+00  0.49533E+03    0.25000E+00  0.25000E+00 -0.50000E+00  0.00000E+00  0.00000E+00  0.00000E+00    0.87694E+02  0.15826E+03 -0.24596E+03  0.13799E+02  0.92446E+01  0.18679E+03      982.00
  0.43219E+00  0.49524E+03    0.26250E+00  0.26250E+00 -0.52500E+00  0.00000E+00  0.00000E+00  0.00000E+00    0.88465E+02  0.15744E+03 -0.24591E+03  0.13169E+02  0.90477E+01  0.18696E+03      982.00
  0.45081E+00  0.49506E+03    0.27500E+00  0.27500E+00 -0.55000E+00  0.00000E+00  0.00000E+00  0.00000E+00    0.89275E+02  0.15658E+03 -0.24586E+03  0.12553E+02  0.88536E+01  0.18706E+03      982.00
  0.46944E+00  0.49482E+03    0.28750E+00  0.28750E+00 -0.57500E+00  0.00000E+00  0.00000E+00  0.00000E+00    0.90087E+02  0.15573E+03 -0.24581E+03  0.11954E+02  0.86585E+01  0.18709E+03      982.00
  0.48807E+00  0.49452E+03    0.30000E+00  0.30000E+00 -0.60000E+00  0.00000E+00  0.00000E+00  0.00000E+00    0.90878E+02  0.15489E+03 -0.24577E+03  0.11376E+02  0.84576E+01  0.18706E+03      982.00
  0.50670E+00  0.49416E+03    0.31250E+00  0.31250E+00 -0.62500E+00  0.00000E+00  0.00000E+00  0.00000E+00    0.91677E+02  0.15405E+03 -0.24573E+03  0.10822E+02  0.82500E+01  0.18696E+03      982.00
  0.52535E+00  0.49371E+03    0.32500E+00  0.32500E+00 -0.65000E+00  0.00000E+00  0.00000E+00  0.00000E+00    0.92380E+02  0.15330E+03 -0.24568E+03  0.10292E+02  0.80280E+01  0.18677E+03      982.00
  0.54401E+00  0.49318E+03    0.33750E+00  0.33750E+00 -0.67500E+00  0.00000E+00  0.00000E+00  0.00000E+00    0.93023E+02  0.15261E+03 -0.24563E+03  0.97879E+01  0.77938E+01  0.18650E+03      982.00
  0.56269E+00  0.49259E+03    0.35000E+00  0.35000E+00 -0.70000E+00  0.00000E+00  0.00000E+00  0.00000E+00    0.93652E+02  0.15193E+03 -0.24559E+03  0.93099E+01  0.75485E+01  0.18616E+03      982.00
  0.58138E+00  0.49191E+03    0.36250E+00  0.36250E+00 -0.72500E+00  0.00000E+00  0.00000E+00  0.00000E+00    0.94230E+02  0.15130E+03 -0.24553E+03  0.88581E+01  0.72910E+01  0.18574E+03      982.00
  0.60010E+00  0.49112E+03    0.37500E+00  0.37500E+00 -0.75000E+00  0.00000E+00  0.00000E+00  0.00000E+00    0.94694E+02  0.15077E+03 -0.24546E+03  0.84256E+01  0.70228E+01  0.18522E+03      982.00
  0.61884E+00  0.49024E+03    0.38750E+00  0.38750E+00 -0.77500E+00  0.00000E+00  0.00000E+00  0.00000E+00    0.95159E+02  0.15022E+03 -0.24538E+03  0.80199E+01  0.67473E+01  0.18462E+03      982.00
  0.63761E+00  0.48923E+03    0.40000E+00  0.40000E+00 -0.80000E+00  0.00000E+00  0.00000E+00  0.00000E+00    0.95522E+02  0.14975E+03 -0.24527E+03  0.76253E+01  0.64622E+01  0.18392E+03      982.00
  0.65641E+00  0.48809E+03    0.41250E+00  0.41250E+00 -0.82500E+00  0.00000E+00  0.00000E+00  0.00000E+00    0.95853E+02  0.14930E+03 -0.24515E+03  0.72460E+01  0.61700E+01  0.18312E+03      982.00
  0.67525E+00  0.48676E+03    0.42500E+00  0.42500E+00 -0.85000E+00  0.00000E+00  0.00000E+00  0.00000E+00    0.96172E+02  0.14880E+03 -0.24497E+03  0.68997E+01  0.58723E+01  0.18220E+03      982.00
  0.69412E+00  0.48536E+03    0.43750E+00  0.43750E+00 -0.87500E+00  0.00000E+00  0.00000E+00  0.00000E+00    0.96421E+02  0.14837E+03 -0.24479E+03  0.65459E+01  0.55689E+01  0.18121E+03      982.00
  0.71303E+00  0.48362E+03    0.45000E+00  0.45000E+00 -0.90000E+00  0.00000E+00  0.00000E+00  0.00000E+00    0.96658E+02  0.14784E+03 -0.24450E+03  0.62309E+01  0.52644E+01  0.18002E+03      982.00
  0.73199E+00  0.48189E+03    0.46250E+00  0.46250E+00 -0.92500E+00  0.00000E+00  0.00000E+00  0.00000E+00    0.96855E+02  0.14740E+03 -0.24425E+03  0.58958E+01  0.49523E+01  0.17878E+03      982.00
  0.75100E+00  0.47997E+03    0.47500E+00  0.47500E+00 -0.95000E+00  0.00000E+00  0.00000E+00  0.00000E+00    0.97031E+02  0.14694E+03 -0.24397E+03  0.55688E+01  0.46371E+01  0.17741E+03      982.00
  0.77006E+00  0.47770E+03    0.48750E+00  0.48750E+00 -0.97500E+00  0.00000E+00  0.00000E+00  0.00000E+00    0.97192E+02  0.14640E+03 -0.24360E+03  0.52527E+01  0.43311E+01  0.17581E+03      982.00
  0.78918E+00  0.47535E+03    0.50000E+00  0.50000E+00 -0.10000E+01  0.00000E+00  0.00000E+00  0.00000E+00    0.97339E+02  0.14588E+03 -0.24322E+03  0.49394E+01  0.40108E+01  0.17414E+03      982.00
