          Evm          Svm            E11          E22          E33          E23          E13          E12         SDEV11       SDEV22       SDEV33       SDEV23       SDEV13       SDEV12      TEMP
  0.00000E+00  0.18828E+03    0.00000E+00  0.00000E+00  0.00000E+00  0.00000E+00  0.00000E+00  0.00000E+00    0.56357E+02  0.57088E+02 -0.11344E+03 -0.16500E+02 -0.12613E+02  0.41623E+02      982.00
  0.22595E-01  0.18774E+03    0.12500E-01  0.12500E-01 -0.25000E-01  0.00000E+00  0.00000E+00  0.00000E+00    0.56012E+02  0.56954E+02 -0.11297E+03 -0.13655E+02 -0.10178E+02  0.43445E+02      982.00
  0.45160E-01  0.17377E+03    0.25000E-01  0.25000E-01 -0.50000E-01  0.00000E+00  0.00000E+00  0.00000E+00    0.52477E+02  0.53597E+02 -0.10607E+03 -0.96746E+01 -0.68623E+01  0.38549E+02      982.00
  0.68050E-01  0.17220E+03    0.37500E-01  0.37500E-01 -0.75000E-01  0.00000E+00  0.00000E+00  0.00000E+00    0.51722E+02  0.53079E+02 -0.10480E+03 -0.78741E+01 -0.54600E+01  0.39428E+02      982.00
  0.90873E-01  0.18339E+03    0.50000E-01  0.50000E-01 -0.10000E+00  0.00000E+00  0.00000E+00  0.00000E+00    0.53819E+02  0.55554E+02 -0.10937E+03 -0.74765E+01 -0.52306E+01  0.46415E+02      982.00
  0.11324E+00  0.20579E+03    0.62500E-01  0.62500E-01 -0.12500E+00  0.00000E+00  0.00000E+00  0.00000E+00    0.58230E+02  0.60482E+02 -0.11871E+03 -0.78496E+01 -0.56510E+01  0.58751E+02      982.00
  0.13487E+00  0.24046E+03    0.75000E-01  0.75000E-01 -0.15000E+00  0.00000E+00  0.00000E+00  0.00000E+00    0.64944E+02  0.67866E+02 -0.13281E+03 -0.87302E+01 -0.65366E+01  0.76961E+02      982.00
  0.15558E+00  0.28707E+03    0.87500E-01  0.87500E-01 -0.17500E+00  0.00000E+00  0.00000E+00  0.00000E+00    0.73759E+02  0.77461E+02 -0.15122E+03 -0.99241E+01 -0.77475E+01  0.10078E+03      982.00
  0.17534E+00  0.33930E+03    0.10000E+00  0.10000E+00 -0.20000E+00  0.00000E+00  0.00000E+00  0.00000E+00    0.83473E+02  0.87932E+02 -0.17140E+03 -0.11104E+02 -0.89977E+01  0.12701E+03      982.00
  0.19428E+00  0.38666E+03    0.11250E+00  0.11250E+00 -0.22500E+00  0.00000E+00  0.00000E+00  0.00000E+00    0.92237E+02  0.97290E+02 -0.18953E+03 -0.11982E+02 -0.10001E+02  0.15048E+03      982.00
  0.21266E+00  0.42444E+03    0.12500E+00  0.12500E+00 -0.25000E+00  0.00000E+00  0.00000E+00  0.00000E+00    0.99247E+02  0.10470E+03 -0.20395E+03 -0.12532E+02 -0.10710E+02  0.16904E+03      982.00
  0.23068E+00  0.45307E+03    0.13750E+00  0.13750E+00 -0.27500E+00  0.00000E+00  0.00000E+00  0.00000E+00    0.10459E+03  0.11029E+03 -0.21487E+03 -0.12847E+02 -0.11199E+02  0.18303E+03      982.00
  0.24847E+00  0.47505E+03    0.15000E+00  0.15000E+00 -0.30000E+00  0.00000E+00  0.00000E+00  0.00000E+00    0.10871E+03  0.11453E+03 -0.22324E+03 -0.13018E+02 -0.11549E+02  0.19374E+03      982.00
  0.26609E+00  0.49224E+03    0.16250E+00  0.16250E+00 -0.32500E+00  0.00000E+00  0.00000E+00  0.00000E+00    0.11194E+03  0.11779E+03 -0.22973E+03 -0.13088E+02 -0.11805E+02  0.20216E+03      982.00
  0.28359E+00  0.50540E+03    0.17500E+00  0.17500E+00 -0.35000E+00  0.00000E+00  0.00000E+00  0.00000E+00    0.11441E+03  0.12023E+03 -0.23464E+03 -0.13112E+02 -0.12001E+02  0.20863E+03      982.00
  0.30100E+00  0.51619E+03    0.18750E+00  0.18750E+00 -0.37500E+00  0.00000E+00  0.00000E+00  0.00000E+00    0.11642E+03  0.12216E+03 -0.23857E+03 -0.13073E+02 -0.12143E+02  0.21402E+03      982.00
  0.31833E+00  0.52529E+03    0.20000E+00  0.20000E+00 -0.40000E+00  0.00000E+00  0.00000E+00  0.00000E+00    0.11809E+03  0.12370E+03 -0.24178E+03 -0.12975E+02 -0.12235E+02  0.21865E+03      982.00
  0.33559E+00  0.53230E+03    0.21250E+00  0.21250E+00 -0.42500E+00  0.00000E+00  0.00000E+00  0.00000E+00    0.11933E+03  0.12485E+03 -0.24419E+03 -0.12882E+02 -0.12308E+02  0.22227E+03      982.00
  0.35279E+00  0.53894E+03    0.22500E+00  0.22500E+00 -0.45000E+00  0.00000E+00  0.00000E+00  0.00000E+00    0.12048E+03  0.12588E+03 -0.24636E+03 -0.12729E+02 -0.12341E+02  0.22578E+03      982.00
  0.36994E+00  0.54421E+03    0.23750E+00  0.23750E+00 -0.47500E+00  0.00000E+00  0.00000E+00  0.00000E+00    0.12135E+03  0.12667E+03 -0.24801E+03 -0.12572E+02 -0.12352E+02  0.22863E+03      982.00
  0.38703E+00  0.54883E+03    0.25000E+00  0.25000E+00 -0.50000E+00  0.00000E+00  0.00000E+00  0.00000E+00    0.12206E+03  0.12732E+03 -0.24938E+03 -0.12386E+02 -0.12331E+02  0.23120E+03      982.00
  0.40407E+00  0.55291E+03    0.26250E+00  0.26250E+00 -0.52500E+00  0.00000E+00  0.00000E+00  0.00000E+00    0.12265E+03  0.12786E+03 -0.25051E+03 -0.12173E+02 -0.12279E+02  0.23352E+03      982.00
  0.42106E+00  0.55653E+03    0.27500E+00  0.27500E+00 -0.55000E+00  0.00000E+00  0.00000E+00  0.00000E+00    0.12313E+03  0.12832E+03 -0.25145E+03 -0.11935E+02 -0.12198E+02  0.23563E+03      982.00
  0.43800E+00  0.55757E+03    0.28750E+00  0.28750E+00 -0.57500E+00  0.00000E+00  0.00000E+00  0.00000E+00    0.12317E+03  0.12818E+03 -0.25135E+03 -0.11644E+02 -0.12015E+02  0.23656E+03      982.00
  0.45490E+00  0.55833E+03    0.30000E+00  0.30000E+00 -0.60000E+00  0.00000E+00  0.00000E+00  0.00000E+00    0.12311E+03  0.12804E+03 -0.25115E+03 -0.11324E+02 -0.11811E+02  0.23734E+03      982.00
  0.47177E+00  0.55923E+03    0.31250E+00  0.31250E+00 -0.62500E+00  0.00000E+00  0.00000E+00  0.00000E+00    0.12315E+03  0.12787E+03 -0.25102E+03 -0.10966E+02 -0.11567E+02  0.23818E+03      982.00
  0.48860E+00  0.55988E+03    0.32500E+00  0.32500E+00 -0.65000E+00  0.00000E+00  0.00000E+00  0.00000E+00    0.12308E+03  0.12774E+03 -0.25082E+03 -0.10648E+02 -0.11347E+02  0.23887E+03      982.00
  0.50540E+00  0.56048E+03    0.33750E+00  0.33750E+00 -0.67500E+00  0.00000E+00  0.00000E+00  0.00000E+00    0.12301E+03  0.12761E+03 -0.25062E+03 -0.10332E+02 -0.11119E+02  0.23952E+03      982.00
  0.52217E+00  0.56105E+03    0.35000E+00  0.35000E+00 -0.70000E+00  0.00000E+00  0.00000E+00  0.00000E+00    0.12295E+03  0.12748E+03 -0.25044E+03 -0.10020E+02 -0.10886E+02  0.24013E+03      982.00
  0.53891E+00  0.56157E+03    0.36250E+00  0.36250E+00 -0.72500E+00  0.00000E+00  0.00000E+00  0.00000E+00    0.12290E+03  0.12735E+03 -0.25026E+03 -0.97128E+01 -0.10651E+02  0.24070E+03      982.00
  0.55562E+00  0.56206E+03    0.37500E+00  0.37500E+00 -0.75000E+00  0.00000E+00  0.00000E+00  0.00000E+00    0.12286E+03  0.12722E+03 -0.25009E+03 -0.94126E+01 -0.10414E+02  0.24124E+03      982.00
  0.57231E+00  0.56251E+03    0.38750E+00  0.38750E+00 -0.77500E+00  0.00000E+00  0.00000E+00  0.00000E+00    0.12283E+03  0.12709E+03 -0.24993E+03 -0.91195E+01 -0.10178E+02  0.24173E+03      982.00
  0.58897E+00  0.56293E+03    0.40000E+00  0.40000E+00 -0.80000E+00  0.00000E+00  0.00000E+00  0.00000E+00    0.12282E+03  0.12696E+03 -0.24978E+03 -0.88343E+01 -0.99431E+01  0.24220E+03      982.00
  0.60561E+00  0.56346E+03    0.41250E+00  0.41250E+00 -0.82500E+00  0.00000E+00  0.00000E+00  0.00000E+00    0.12287E+03  0.12681E+03 -0.24968E+03 -0.84586E+01 -0.96266E+01  0.24271E+03      982.00
  0.62223E+00  0.56382E+03    0.42500E+00  0.42500E+00 -0.85000E+00  0.00000E+00  0.00000E+00  0.00000E+00    0.12287E+03  0.12668E+03 -0.24955E+03 -0.81933E+01 -0.93989E+01  0.24311E+03      982.00
  0.63882E+00  0.56416E+03    0.43750E+00  0.43750E+00 -0.87500E+00  0.00000E+00  0.00000E+00  0.00000E+00    0.12290E+03  0.12652E+03 -0.24943E+03 -0.79503E+01 -0.91855E+01  0.24348E+03      982.00
  0.65540E+00  0.56445E+03    0.45000E+00  0.45000E+00 -0.90000E+00  0.00000E+00  0.00000E+00  0.00000E+00    0.12293E+03  0.12638E+03 -0.24931E+03 -0.77039E+01 -0.89668E+01  0.24381E+03      982.00
  0.67197E+00  0.56471E+03    0.46250E+00  0.46250E+00 -0.92500E+00  0.00000E+00  0.00000E+00  0.00000E+00    0.12295E+03  0.12625E+03 -0.24920E+03 -0.74648E+01 -0.87522E+01  0.24411E+03      982.00
  0.68851E+00  0.56492E+03    0.47500E+00  0.47500E+00 -0.95000E+00  0.00000E+00  0.00000E+00  0.00000E+00    0.12299E+03  0.12613E+03 -0.24912E+03 -0.72589E+01 -0.85677E+01  0.24434E+03      982.00
  0.70505E+00  0.56513E+03    0.48750E+00  0.48750E+00 -0.97500E+00  0.00000E+00  0.00000E+00  0.00000E+00    0.12302E+03  0.12600E+03 -0.24902E+03 -0.70357E+01 -0.83630E+01  0.24460E+03      982.00
  0.72157E+00  0.56534E+03    0.50000E+00  0.50000E+00 -0.10000E+01  0.00000E+00  0.00000E+00  0.00000E+00    0.12306E+03  0.12588E+03 -0.24894E+03 -0.68183E+01 -0.81615E+01  0.24483E+03      982.00
