          Evm          Svm            E11          E22          E33          E23          E13          E12         SDEV11       SDEV22       SDEV33       SDEV23       SDEV13       SDEV12      TEMP
  0.00000E+00  0.15753E+03    0.00000E+00  0.00000E+00  0.00000E+00  0.00000E+00  0.00000E+00  0.00000E+00    0.47982E+02  0.55460E+02 -0.10344E+03  0.10145E+01  0.79137E+01  0.12991E+02      982.00
  0.24625E-01  0.15664E+03    0.12500E-01  0.12500E-01 -0.25000E-01  0.00000E+00  0.00000E+00  0.00000E+00    0.48513E+02  0.54174E+02 -0.10269E+03  0.18294E+00  0.66971E+01  0.14738E+02      982.00
  0.49209E-01  0.16238E+03    0.25000E-01  0.25000E-01 -0.50000E-01  0.00000E+00  0.00000E+00  0.00000E+00    0.52372E+02  0.53571E+02 -0.10594E+03  0.33187E-01  0.61681E+01  0.18244E+02      982.00
  0.73675E-01  0.17731E+03    0.37500E-01  0.37500E-01 -0.75000E-01  0.00000E+00  0.00000E+00  0.00000E+00    0.61208E+02  0.53285E+02 -0.11449E+03  0.65514E+00  0.62409E+01  0.24363E+02      982.00
  0.97889E-01  0.20625E+03    0.50000E-01  0.50000E-01 -0.10000E+00  0.00000E+00  0.00000E+00  0.00000E+00    0.78137E+02  0.52353E+02 -0.13049E+03  0.21848E+01  0.67029E+01  0.34536E+02      982.00
  0.12161E+00  0.23337E+03    0.62500E-01  0.62500E-01 -0.12500E+00  0.00000E+00  0.00000E+00  0.00000E+00    0.96509E+02  0.48181E+02 -0.14469E+03  0.38369E+01  0.60073E+01  0.42641E+02      982.00
  0.14486E+00  0.23671E+03    0.75000E-01  0.75000E-01 -0.15000E+00  0.00000E+00  0.00000E+00  0.00000E+00    0.10030E+03  0.45952E+02 -0.14625E+03  0.49214E+01  0.57789E+01  0.42878E+02      982.00
  0.16803E+00  0.24965E+03    0.87500E-01  0.87500E-01 -0.17500E+00  0.00000E+00  0.00000E+00  0.00000E+00    0.10620E+03  0.46859E+02 -0.15305E+03  0.61127E+01  0.69844E+01  0.47331E+02      982.00
  0.19102E+00  0.27042E+03    0.10000E+00  0.10000E+00 -0.20000E+00  0.00000E+00  0.00000E+00  0.00000E+00    0.11482E+03  0.49233E+02 -0.16405E+03  0.70576E+01  0.83668E+01  0.54721E+02      982.00
  0.21377E+00  0.29322E+03    0.11250E+00  0.11250E+00 -0.22500E+00  0.00000E+00  0.00000E+00  0.00000E+00    0.12379E+03  0.52362E+02 -0.17615E+03  0.76447E+01  0.94117E+01  0.62977E+02      982.00
  0.23630E+00  0.31366E+03    0.12500E+00  0.12500E+00 -0.25000E+00  0.00000E+00  0.00000E+00  0.00000E+00    0.13139E+03  0.55738E+02 -0.18713E+03  0.78577E+01  0.10031E+02  0.70271E+02      982.00
  0.25867E+00  0.33022E+03    0.13750E+00  0.13750E+00 -0.27500E+00  0.00000E+00  0.00000E+00  0.00000E+00    0.13724E+03  0.59005E+02 -0.19624E+03  0.77973E+01  0.10311E+02  0.75942E+02      982.00
  0.28096E+00  0.34290E+03    0.15000E+00  0.15000E+00 -0.30000E+00  0.00000E+00  0.00000E+00  0.00000E+00    0.14151E+03  0.61995E+02 -0.20350E+03  0.75719E+01  0.10370E+02  0.79917E+02      982.00
  0.30322E+00  0.35227E+03    0.16250E+00  0.16250E+00 -0.32500E+00  0.00000E+00  0.00000E+00  0.00000E+00    0.14451E+03  0.64691E+02 -0.20920E+03  0.72661E+01  0.10303E+02  0.82395E+02      982.00
  0.32549E+00  0.35901E+03    0.17500E+00  0.17500E+00 -0.35000E+00  0.00000E+00  0.00000E+00  0.00000E+00    0.14653E+03  0.67140E+02 -0.21367E+03  0.69354E+01  0.10179E+02  0.83627E+02      982.00
  0.34780E+00  0.36370E+03    0.18750E+00  0.18750E+00 -0.37500E+00  0.00000E+00  0.00000E+00  0.00000E+00    0.14778E+03  0.69411E+02 -0.21719E+03  0.66148E+01  0.10037E+02  0.83867E+02      982.00
  0.37020E+00  0.36686E+03    0.20000E+00  0.20000E+00 -0.40000E+00  0.00000E+00  0.00000E+00  0.00000E+00    0.14847E+03  0.71542E+02 -0.22001E+03  0.63229E+01  0.99053E+01  0.83306E+02      982.00
  0.39269E+00  0.36885E+03    0.21250E+00  0.21250E+00 -0.42500E+00  0.00000E+00  0.00000E+00  0.00000E+00    0.14868E+03  0.73624E+02 -0.22231E+03  0.60706E+01  0.98108E+01  0.82116E+02      982.00
  0.41529E+00  0.36998E+03    0.22500E+00  0.22500E+00 -0.45000E+00  0.00000E+00  0.00000E+00  0.00000E+00    0.14852E+03  0.75701E+02 -0.22422E+03  0.58635E+01  0.97714E+01  0.80427E+02      982.00
  0.43802E+00  0.37067E+03    0.23750E+00  0.23750E+00 -0.47500E+00  0.00000E+00  0.00000E+00  0.00000E+00    0.14820E+03  0.77729E+02 -0.22593E+03  0.57049E+01  0.97714E+01  0.78388E+02      982.00
  0.46087E+00  0.36844E+03    0.25000E+00  0.25000E+00 -0.50000E+00  0.00000E+00  0.00000E+00  0.00000E+00    0.14690E+03  0.79037E+02 -0.22594E+03  0.55595E+01  0.96849E+01  0.75410E+02      982.00
  0.48387E+00  0.36653E+03    0.26250E+00  0.26250E+00 -0.52500E+00  0.00000E+00  0.00000E+00  0.00000E+00    0.14559E+03  0.80483E+02 -0.22607E+03  0.54249E+01  0.96342E+01  0.72574E+02      982.00
  0.50700E+00  0.36488E+03    0.27500E+00  0.27500E+00 -0.55000E+00  0.00000E+00  0.00000E+00  0.00000E+00    0.14434E+03  0.81977E+02 -0.22631E+03  0.53071E+01  0.96145E+01  0.69812E+02      982.00
  0.53026E+00  0.36350E+03    0.28750E+00  0.28750E+00 -0.57500E+00  0.00000E+00  0.00000E+00  0.00000E+00    0.14315E+03  0.83502E+02 -0.22666E+03  0.52056E+01  0.96200E+01  0.67122E+02      982.00
  0.55364E+00  0.36238E+03    0.30000E+00  0.30000E+00 -0.60000E+00  0.00000E+00  0.00000E+00  0.00000E+00    0.14205E+03  0.85052E+02 -0.22710E+03  0.51192E+01  0.96468E+01  0.64507E+02      982.00
  0.57714E+00  0.36134E+03    0.31250E+00  0.31250E+00 -0.62500E+00  0.00000E+00  0.00000E+00  0.00000E+00    0.14089E+03  0.86660E+02 -0.22755E+03  0.50452E+01  0.97182E+01  0.61900E+02      982.00
  0.60076E+00  0.36075E+03    0.32500E+00  0.32500E+00 -0.65000E+00  0.00000E+00  0.00000E+00  0.00000E+00    0.13996E+03  0.88242E+02 -0.22820E+03  0.49854E+01  0.97726E+01  0.59450E+02      982.00
  0.62448E+00  0.36041E+03    0.33750E+00  0.33750E+00 -0.67500E+00  0.00000E+00  0.00000E+00  0.00000E+00    0.13911E+03  0.89836E+02 -0.22895E+03  0.49370E+01  0.98374E+01  0.57083E+02      982.00
  0.64830E+00  0.36031E+03    0.35000E+00  0.35000E+00 -0.70000E+00  0.00000E+00  0.00000E+00  0.00000E+00    0.13834E+03  0.91439E+02 -0.22978E+03  0.48986E+01  0.99095E+01  0.54799E+02      982.00
  0.67221E+00  0.36047E+03    0.36250E+00  0.36250E+00 -0.72500E+00  0.00000E+00  0.00000E+00  0.00000E+00    0.13769E+03  0.93017E+02 -0.23071E+03  0.48579E+01  0.99802E+01  0.52640E+02      982.00
  0.69622E+00  0.36070E+03    0.37500E+00  0.37500E+00 -0.75000E+00  0.00000E+00  0.00000E+00  0.00000E+00    0.13696E+03  0.94694E+02 -0.23166E+03  0.48412E+01  0.10099E+02  0.50459E+02      982.00
  0.72030E+00  0.36126E+03    0.38750E+00  0.38750E+00 -0.77500E+00  0.00000E+00  0.00000E+00  0.00000E+00    0.13645E+03  0.96296E+02 -0.23274E+03  0.48276E+01  0.10172E+02  0.48429E+02      982.00
  0.74446E+00  0.36201E+03    0.40000E+00  0.40000E+00 -0.80000E+00  0.00000E+00  0.00000E+00  0.00000E+00    0.13601E+03  0.97893E+02 -0.23390E+03  0.48192E+01  0.10243E+02  0.46480E+02      982.00
  0.76869E+00  0.36286E+03    0.41250E+00  0.41250E+00 -0.82500E+00  0.00000E+00  0.00000E+00  0.00000E+00    0.13561E+03  0.99468E+02 -0.23508E+03  0.47951E+01  0.10324E+02  0.44581E+02      982.00
  0.79298E+00  0.36395E+03    0.42500E+00  0.42500E+00 -0.85000E+00  0.00000E+00  0.00000E+00  0.00000E+00    0.13531E+03  0.10105E+03 -0.23636E+03  0.47933E+01  0.10383E+02  0.42792E+02      982.00
  0.81734E+00  0.36520E+03    0.43750E+00  0.43750E+00 -0.87500E+00  0.00000E+00  0.00000E+00  0.00000E+00    0.13508E+03  0.10261E+03 -0.23769E+03  0.47943E+01  0.10436E+02  0.41079E+02      982.00
  0.84174E+00  0.36658E+03    0.45000E+00  0.45000E+00 -0.90000E+00  0.00000E+00  0.00000E+00  0.00000E+00    0.13491E+03  0.10416E+03 -0.23908E+03  0.47971E+01  0.10480E+02  0.39441E+02      982.00
  0.86620E+00  0.36808E+03    0.46250E+00  0.46250E+00 -0.92500E+00  0.00000E+00  0.00000E+00  0.00000E+00    0.13476E+03  0.10574E+03 -0.24050E+03  0.47837E+01  0.10557E+02  0.37867E+02      982.00
  0.89070E+00  0.36970E+03    0.47500E+00  0.47500E+00 -0.95000E+00  0.00000E+00  0.00000E+00  0.00000E+00    0.13472E+03  0.10725E+03 -0.24197E+03  0.47917E+01  0.10578E+02  0.36373E+02      982.00
  0.91525E+00  0.37142E+03    0.48750E+00  0.48750E+00 -0.97500E+00  0.00000E+00  0.00000E+00  0.00000E+00    0.13473E+03  0.10874E+03 -0.24347E+03  0.47999E+01  0.10591E+02  0.34947E+02      982.00
  0.93983E+00  0.37323E+03    0.50000E+00  0.50000E+00 -0.10000E+01  0.00000E+00  0.00000E+00  0.00000E+00    0.13478E+03  0.11022E+03 -0.24500E+03  0.48074E+01  0.10596E+02  0.33586E+02      982.00
