          Evm          Svm            E11          E22          E33          E23          E13          E12         SDEV11       SDEV22       SDEV33       SDEV23       SDEV13       SDEV12      TEMP
  0.00000E+00  0.19601E+03    0.00000E+00  0.00000E+00  0.00000E+00  0.00000E+00  0.00000E+00  0.00000E+00    0.66298E+02  0.60675E+02 -0.12697E+03 -0.10829E+02 -0.12242E+02  0.20960E+02      982.00
  0.24293E-01  0.20284E+03    0.12500E-01  0.12500E-01 -0.25000E-01  0.00000E+00  0.00000E+00  0.00000E+00    0.65515E+02  0.65422E+02 -0.13094E+03 -0.10872E+02 -0.11304E+02  0.24707E+02      982.00
  0.48500E-01  0.19568E+03    0.25000E-01  0.25000E-01 -0.50000E-01  0.00000E+00  0.00000E+00  0.00000E+00    0.61204E+02  0.65363E+02 -0.12657E+03 -0.97166E+01 -0.88122E+01  0.23921E+02      982.00
  0.72755E-01  0.19126E+03    0.37500E-01  0.37500E-01 -0.75000E-01  0.00000E+00  0.00000E+00  0.00000E+00    0.58903E+02  0.64859E+02 -0.12376E+03 -0.83074E+01 -0.67695E+01  0.24131E+02      982.00
  0.97021E-01  0.19575E+03    0.50000E-01  0.50000E-01 -0.10000E+00  0.00000E+00  0.00000E+00  0.00000E+00    0.59225E+02  0.66928E+02 -0.12615E+03 -0.73434E+01 -0.57049E+01  0.27132E+02      982.00
  0.12119E+00  0.20801E+03    0.62500E-01  0.62500E-01 -0.12500E+00  0.00000E+00  0.00000E+00  0.00000E+00    0.61545E+02  0.71403E+02 -0.13295E+03 -0.68647E+01 -0.52888E+01  0.32672E+02      982.00
  0.14515E+00  0.22719E+03    0.75000E-01  0.75000E-01 -0.15000E+00  0.00000E+00  0.00000E+00  0.00000E+00    0.65416E+02  0.78106E+02 -0.14352E+03 -0.67653E+01 -0.52862E+01  0.40525E+02      982.00
  0.16884E+00  0.25107E+03    0.87500E-01  0.87500E-01 -0.17500E+00  0.00000E+00  0.00000E+00  0.00000E+00    0.70092E+02  0.86483E+02 -0.15657E+03 -0.68655E+01 -0.54903E+01  0.49804E+02      982.00
  0.19223E+00  0.27576E+03    0.10000E+00  0.10000E+00 -0.20000E+00  0.00000E+00  0.00000E+00  0.00000E+00    0.74637E+02  0.95409E+02 -0.17005E+03 -0.69915E+01 -0.57468E+01  0.58919E+02      982.00
  0.21535E+00  0.29789E+03    0.11250E+00  0.11250E+00 -0.22500E+00  0.00000E+00  0.00000E+00  0.00000E+00    0.78400E+02  0.10381E+03 -0.18221E+03 -0.70520E+01 -0.59551E+01  0.66566E+02      982.00
  0.23829E+00  0.31596E+03    0.12500E+00  0.12500E+00 -0.25000E+00  0.00000E+00  0.00000E+00  0.00000E+00    0.81277E+02  0.11108E+03 -0.19236E+03 -0.70488E+01 -0.61094E+01  0.72230E+02      982.00
  0.26112E+00  0.32994E+03    0.13750E+00  0.13750E+00 -0.27500E+00  0.00000E+00  0.00000E+00  0.00000E+00    0.83424E+02  0.11706E+03 -0.20048E+03 -0.70109E+01 -0.62304E+01  0.75971E+02      982.00
  0.28391E+00  0.34053E+03    0.15000E+00  0.15000E+00 -0.30000E+00  0.00000E+00  0.00000E+00  0.00000E+00    0.85131E+02  0.12182E+03 -0.20696E+03 -0.69550E+01 -0.63423E+01  0.78139E+02      982.00
  0.30670E+00  0.34840E+03    0.16250E+00  0.16250E+00 -0.32500E+00  0.00000E+00  0.00000E+00  0.00000E+00    0.86508E+02  0.12561E+03 -0.21212E+03 -0.69115E+01 -0.64617E+01  0.79016E+02      982.00
  0.32953E+00  0.35424E+03    0.17500E+00  0.17500E+00 -0.35000E+00  0.00000E+00  0.00000E+00  0.00000E+00    0.87693E+02  0.12861E+03 -0.21631E+03 -0.68856E+01 -0.65933E+01  0.78909E+02      982.00
  0.35243E+00  0.35852E+03    0.18750E+00  0.18750E+00 -0.37500E+00  0.00000E+00  0.00000E+00  0.00000E+00    0.88821E+02  0.13094E+03 -0.21976E+03 -0.68858E+01 -0.67522E+01  0.78026E+02      982.00
  0.37542E+00  0.36169E+03    0.20000E+00  0.20000E+00 -0.40000E+00  0.00000E+00  0.00000E+00  0.00000E+00    0.89864E+02  0.13284E+03 -0.22270E+03 -0.69336E+01 -0.69468E+01  0.76494E+02      982.00
  0.39851E+00  0.36407E+03    0.21250E+00  0.21250E+00 -0.42500E+00  0.00000E+00  0.00000E+00  0.00000E+00    0.90964E+02  0.13433E+03 -0.22529E+03 -0.70330E+01 -0.71911E+01  0.74452E+02      982.00
  0.42171E+00  0.36597E+03    0.22500E+00  0.22500E+00 -0.45000E+00  0.00000E+00  0.00000E+00  0.00000E+00    0.92138E+02  0.13551E+03 -0.22765E+03 -0.71805E+01 -0.74773E+01  0.72096E+02      982.00
  0.44504E+00  0.36761E+03    0.23750E+00  0.23750E+00 -0.47500E+00  0.00000E+00  0.00000E+00  0.00000E+00    0.93386E+02  0.13650E+03 -0.22989E+03 -0.73646E+01 -0.77895E+01  0.69493E+02      982.00
  0.46849E+00  0.36673E+03    0.25000E+00  0.25000E+00 -0.50000E+00  0.00000E+00  0.00000E+00  0.00000E+00    0.94305E+02  0.13623E+03 -0.23054E+03 -0.74594E+01 -0.79543E+01  0.66405E+02      982.00
  0.49206E+00  0.36604E+03    0.26250E+00  0.26250E+00 -0.52500E+00  0.00000E+00  0.00000E+00  0.00000E+00    0.95144E+02  0.13610E+03 -0.23125E+03 -0.75599E+01 -0.81080E+01  0.63354E+02      982.00
  0.51575E+00  0.36552E+03    0.27500E+00  0.27500E+00 -0.55000E+00  0.00000E+00  0.00000E+00  0.00000E+00    0.96032E+02  0.13597E+03 -0.23200E+03 -0.76627E+01 -0.82548E+01  0.60337E+02      982.00
  0.53956E+00  0.36538E+03    0.28750E+00  0.28750E+00 -0.57500E+00  0.00000E+00  0.00000E+00  0.00000E+00    0.96985E+02  0.13593E+03 -0.23291E+03 -0.77759E+01 -0.84097E+01  0.57492E+02      982.00
  0.56346E+00  0.36557E+03    0.30000E+00  0.30000E+00 -0.60000E+00  0.00000E+00  0.00000E+00  0.00000E+00    0.98000E+02  0.13595E+03 -0.23395E+03 -0.79100E+01 -0.85864E+01  0.54768E+02      982.00
  0.58746E+00  0.36594E+03    0.31250E+00  0.31250E+00 -0.62500E+00  0.00000E+00  0.00000E+00  0.00000E+00    0.99043E+02  0.13601E+03 -0.23505E+03 -0.80183E+01 -0.87245E+01  0.52138E+02      982.00
  0.61155E+00  0.36641E+03    0.32500E+00  0.32500E+00 -0.65000E+00  0.00000E+00  0.00000E+00  0.00000E+00    0.10012E+03  0.13604E+03 -0.23616E+03 -0.81112E+01 -0.88363E+01  0.49563E+02      982.00
  0.63572E+00  0.36724E+03    0.33750E+00  0.33750E+00 -0.67500E+00  0.00000E+00  0.00000E+00  0.00000E+00    0.10124E+03  0.13619E+03 -0.23743E+03 -0.82072E+01 -0.89517E+01  0.47162E+02      982.00
  0.65996E+00  0.36828E+03    0.35000E+00  0.35000E+00 -0.70000E+00  0.00000E+00  0.00000E+00  0.00000E+00    0.10239E+03  0.13638E+03 -0.23877E+03 -0.82947E+01 -0.90537E+01  0.44868E+02      982.00
  0.68427E+00  0.36950E+03    0.36250E+00  0.36250E+00 -0.72500E+00  0.00000E+00  0.00000E+00  0.00000E+00    0.10357E+03  0.13661E+03 -0.24017E+03 -0.83724E+01 -0.91413E+01  0.42682E+02      982.00
  0.70865E+00  0.37089E+03    0.37500E+00  0.37500E+00 -0.75000E+00  0.00000E+00  0.00000E+00  0.00000E+00    0.10476E+03  0.13687E+03 -0.24163E+03 -0.84395E+01 -0.92144E+01  0.40599E+02      982.00
  0.73308E+00  0.37242E+03    0.38750E+00  0.38750E+00 -0.77500E+00  0.00000E+00  0.00000E+00  0.00000E+00    0.10597E+03  0.13718E+03 -0.24315E+03 -0.84959E+01 -0.92729E+01  0.38618E+02      982.00
  0.75756E+00  0.37407E+03    0.40000E+00  0.40000E+00 -0.80000E+00  0.00000E+00  0.00000E+00  0.00000E+00    0.10721E+03  0.13748E+03 -0.24470E+03 -0.85793E+01 -0.93678E+01  0.36676E+02      982.00
  0.78209E+00  0.37587E+03    0.41250E+00  0.41250E+00 -0.82500E+00  0.00000E+00  0.00000E+00  0.00000E+00    0.10845E+03  0.13785E+03 -0.24630E+03 -0.86085E+01 -0.93932E+01  0.34895E+02      982.00
  0.80666E+00  0.37778E+03    0.42500E+00  0.42500E+00 -0.85000E+00  0.00000E+00  0.00000E+00  0.00000E+00    0.10968E+03  0.13825E+03 -0.24794E+03 -0.86275E+01 -0.94052E+01  0.33205E+02      982.00
  0.83128E+00  0.37977E+03    0.43750E+00  0.43750E+00 -0.87500E+00  0.00000E+00  0.00000E+00  0.00000E+00    0.11092E+03  0.13867E+03 -0.24959E+03 -0.86417E+01 -0.94097E+01  0.31593E+02      982.00
  0.85592E+00  0.38184E+03    0.45000E+00  0.45000E+00 -0.90000E+00  0.00000E+00  0.00000E+00  0.00000E+00    0.11215E+03  0.13911E+03 -0.25126E+03 -0.86422E+01 -0.93989E+01  0.30070E+02      982.00
  0.88060E+00  0.38402E+03    0.46250E+00  0.46250E+00 -0.92500E+00  0.00000E+00  0.00000E+00  0.00000E+00    0.11342E+03  0.13957E+03 -0.25299E+03 -0.86612E+01 -0.94184E+01  0.28594E+02      982.00
  0.90530E+00  0.38620E+03    0.47500E+00  0.47500E+00 -0.95000E+00  0.00000E+00  0.00000E+00  0.00000E+00    0.11464E+03  0.14005E+03 -0.25469E+03 -0.86389E+01 -0.93803E+01  0.27230E+02      982.00
  0.93003E+00  0.38842E+03    0.48750E+00  0.48750E+00 -0.97500E+00  0.00000E+00  0.00000E+00  0.00000E+00    0.11585E+03  0.14055E+03 -0.25640E+03 -0.86099E+01 -0.93337E+01  0.25936E+02      982.00
  0.95479E+00  0.39067E+03    0.50000E+00  0.50000E+00 -0.10000E+01  0.00000E+00  0.00000E+00  0.00000E+00    0.11705E+03  0.14105E+03 -0.25809E+03 -0.85749E+01 -0.92800E+01  0.24708E+02      982.00
