          Evm          Svm            E11          E22          E33          E23          E13          E12         SDEV11       SDEV22       SDEV33       SDEV23       SDEV13       SDEV12      TEMP
  0.00000E+00  0.14901E+03    0.00000E+00  0.00000E+00  0.00000E+00  0.00000E+00  0.00000E+00  0.00000E+00    0.45971E+02  0.48358E+02 -0.94330E+02 -0.36984E+00 -0.85920E+00  0.26936E+02      982.00
  0.23739E-01  0.14976E+03    0.12500E-01  0.12500E-01 -0.25000E-01  0.00000E+00  0.00000E+00  0.00000E+00    0.45463E+02  0.48885E+02 -0.94348E+02 -0.59531E+00 -0.13757E+01  0.28185E+02      982.00
  0.47364E-01  0.15292E+03    0.25000E-01  0.25000E-01 -0.50000E-01  0.00000E+00  0.00000E+00  0.00000E+00    0.45482E+02  0.50009E+02 -0.95491E+02 -0.74336E+00 -0.18022E+01  0.30771E+02      982.00
  0.70781E-01  0.15877E+03    0.37500E-01  0.37500E-01 -0.75000E-01  0.00000E+00  0.00000E+00  0.00000E+00    0.46079E+02  0.51764E+02 -0.97843E+02 -0.88083E+00 -0.21590E+01  0.34773E+02      982.00
  0.93891E-01  0.16826E+03    0.50000E-01  0.50000E-01 -0.10000E+00  0.00000E+00  0.00000E+00  0.00000E+00    0.47364E+02  0.54381E+02 -0.10174E+03 -0.10598E+01 -0.24937E+01  0.40659E+02      982.00
  0.11657E+00  0.18278E+03    0.62500E-01  0.62500E-01 -0.12500E+00  0.00000E+00  0.00000E+00  0.00000E+00    0.49477E+02  0.58179E+02 -0.10766E+03 -0.12848E+01 -0.28634E+01  0.49138E+02      982.00
  0.13865E+00  0.20415E+03    0.75000E-01  0.75000E-01 -0.15000E+00  0.00000E+00  0.00000E+00  0.00000E+00    0.52625E+02  0.63535E+02 -0.11616E+03 -0.15938E+01 -0.32939E+01  0.61063E+02      982.00
  0.15999E+00  0.23423E+03    0.87500E-01  0.87500E-01 -0.17500E+00  0.00000E+00  0.00000E+00  0.00000E+00    0.57018E+02  0.70801E+02 -0.12782E+03 -0.20344E+01 -0.37848E+01  0.77256E+02      982.00
  0.18046E+00  0.27531E+03    0.10000E+00  0.10000E+00 -0.20000E+00  0.00000E+00  0.00000E+00  0.00000E+00    0.62863E+02  0.80396E+02 -0.14326E+03 -0.25785E+01 -0.43957E+01  0.98844E+02      982.00
  0.19997E+00  0.32493E+03    0.11250E+00  0.11250E+00 -0.22500E+00  0.00000E+00  0.00000E+00  0.00000E+00    0.69849E+02  0.91650E+02 -0.16150E+03 -0.32386E+01 -0.50379E+01  0.12441E+03      982.00
  0.21861E+00  0.37535E+03    0.12500E+00  0.12500E+00 -0.25000E+00  0.00000E+00  0.00000E+00  0.00000E+00    0.76968E+02  0.10278E+03 -0.17975E+03 -0.38860E+01 -0.56152E+01  0.15006E+03      982.00
  0.23657E+00  0.41837E+03    0.13750E+00  0.13750E+00 -0.27500E+00  0.00000E+00  0.00000E+00  0.00000E+00    0.83217E+02  0.11205E+03 -0.19526E+03 -0.44598E+01 -0.60155E+01  0.17171E+03      982.00
  0.25407E+00  0.45175E+03    0.15000E+00  0.15000E+00 -0.30000E+00  0.00000E+00  0.00000E+00  0.00000E+00    0.88285E+02  0.11910E+03 -0.20739E+03 -0.49608E+01 -0.61989E+01  0.18833E+03      982.00
  0.27128E+00  0.47702E+03    0.16250E+00  0.16250E+00 -0.32500E+00  0.00000E+00  0.00000E+00  0.00000E+00    0.92261E+02  0.12432E+03 -0.21658E+03 -0.53402E+01 -0.62697E+01  0.20086E+03      982.00
  0.28831E+00  0.49615E+03    0.17500E+00  0.17500E+00 -0.35000E+00  0.00000E+00  0.00000E+00  0.00000E+00    0.95367E+02  0.12821E+03 -0.22358E+03 -0.56432E+01 -0.62381E+01  0.21029E+03      982.00
  0.30521E+00  0.51104E+03    0.18750E+00  0.18750E+00 -0.37500E+00  0.00000E+00  0.00000E+00  0.00000E+00    0.97820E+02  0.13120E+03 -0.22902E+03 -0.58559E+01 -0.61651E+01  0.21763E+03      982.00
  0.32201E+00  0.52281E+03    0.20000E+00  0.20000E+00 -0.40000E+00  0.00000E+00  0.00000E+00  0.00000E+00    0.99771E+02  0.13355E+03 -0.23332E+03 -0.60068E+01 -0.60590E+01  0.22343E+03      982.00
  0.33875E+00  0.53226E+03    0.21250E+00  0.21250E+00 -0.42500E+00  0.00000E+00  0.00000E+00  0.00000E+00    0.10132E+03  0.13544E+03 -0.23677E+03 -0.61072E+01 -0.59305E+01  0.22809E+03      982.00
  0.35543E+00  0.53979E+03    0.22500E+00  0.22500E+00 -0.45000E+00  0.00000E+00  0.00000E+00  0.00000E+00    0.10254E+03  0.13697E+03 -0.23951E+03 -0.61697E+01 -0.57826E+01  0.23180E+03      982.00
  0.37207E+00  0.54573E+03    0.23750E+00  0.23750E+00 -0.47500E+00  0.00000E+00  0.00000E+00  0.00000E+00    0.10347E+03  0.13821E+03 -0.24168E+03 -0.61967E+01 -0.56269E+01  0.23472E+03      982.00
  0.38868E+00  0.55109E+03    0.25000E+00  0.25000E+00 -0.50000E+00  0.00000E+00  0.00000E+00  0.00000E+00    0.10423E+03  0.13936E+03 -0.24359E+03 -0.61694E+01 -0.54924E+01  0.23740E+03      982.00
  0.40525E+00  0.55534E+03    0.26250E+00  0.26250E+00 -0.52500E+00  0.00000E+00  0.00000E+00  0.00000E+00    0.10481E+03  0.14031E+03 -0.24512E+03 -0.61519E+01 -0.53273E+01  0.23949E+03      982.00
  0.42181E+00  0.55490E+03    0.27500E+00  0.27500E+00 -0.55000E+00  0.00000E+00  0.00000E+00  0.00000E+00    0.10437E+03  0.14057E+03 -0.24494E+03 -0.60121E+01 -0.51605E+01  0.23927E+03      982.00
  0.43836E+00  0.55493E+03    0.28750E+00  0.28750E+00 -0.57500E+00  0.00000E+00  0.00000E+00  0.00000E+00    0.10411E+03  0.14075E+03 -0.24486E+03 -0.58560E+01 -0.50248E+01  0.23935E+03      982.00
  0.45491E+00  0.55486E+03    0.30000E+00  0.30000E+00 -0.60000E+00  0.00000E+00  0.00000E+00  0.00000E+00    0.10389E+03  0.14087E+03 -0.24476E+03 -0.57081E+01 -0.48906E+01  0.23936E+03      982.00
  0.47145E+00  0.55482E+03    0.31250E+00  0.31250E+00 -0.62500E+00  0.00000E+00  0.00000E+00  0.00000E+00    0.10375E+03  0.14092E+03 -0.24467E+03 -0.55715E+01 -0.47665E+01  0.23940E+03      982.00
  0.48799E+00  0.55475E+03    0.32500E+00  0.32500E+00 -0.65000E+00  0.00000E+00  0.00000E+00  0.00000E+00    0.10357E+03  0.14101E+03 -0.24458E+03 -0.54269E+01 -0.46437E+01  0.23941E+03      982.00
  0.50452E+00  0.55469E+03    0.33750E+00  0.33750E+00 -0.67500E+00  0.00000E+00  0.00000E+00  0.00000E+00    0.10339E+03  0.14111E+03 -0.24450E+03 -0.52839E+01 -0.45245E+01  0.23941E+03      982.00
  0.52105E+00  0.55459E+03    0.35000E+00  0.35000E+00 -0.70000E+00  0.00000E+00  0.00000E+00  0.00000E+00    0.10314E+03  0.14128E+03 -0.24442E+03 -0.51351E+01 -0.44034E+01  0.23939E+03      982.00
  0.53758E+00  0.55455E+03    0.36250E+00  0.36250E+00 -0.72500E+00  0.00000E+00  0.00000E+00  0.00000E+00    0.10302E+03  0.14133E+03 -0.24435E+03 -0.50040E+01 -0.42968E+01  0.23941E+03      982.00
  0.55410E+00  0.55446E+03    0.37500E+00  0.37500E+00 -0.75000E+00  0.00000E+00  0.00000E+00  0.00000E+00    0.10278E+03  0.14150E+03 -0.24428E+03 -0.48606E+01 -0.41825E+01  0.23939E+03      982.00
  0.57062E+00  0.55438E+03    0.38750E+00  0.38750E+00 -0.77500E+00  0.00000E+00  0.00000E+00  0.00000E+00    0.10265E+03  0.14156E+03 -0.24421E+03 -0.47450E+01 -0.40898E+01  0.23937E+03      982.00
  0.58714E+00  0.55432E+03    0.40000E+00  0.40000E+00 -0.80000E+00  0.00000E+00  0.00000E+00  0.00000E+00    0.10248E+03  0.14167E+03 -0.24415E+03 -0.46118E+01 -0.39859E+01  0.23936E+03      982.00
  0.60366E+00  0.55425E+03    0.41250E+00  0.41250E+00 -0.82500E+00  0.00000E+00  0.00000E+00  0.00000E+00    0.10231E+03  0.14178E+03 -0.24409E+03 -0.44815E+01 -0.38856E+01  0.23935E+03      982.00
  0.62017E+00  0.55419E+03    0.42500E+00  0.42500E+00 -0.85000E+00  0.00000E+00  0.00000E+00  0.00000E+00    0.10214E+03  0.14189E+03 -0.24404E+03 -0.43538E+01 -0.37886E+01  0.23933E+03      982.00
  0.63668E+00  0.55412E+03    0.43750E+00  0.43750E+00 -0.87500E+00  0.00000E+00  0.00000E+00  0.00000E+00    0.10198E+03  0.14200E+03 -0.24399E+03 -0.42287E+01 -0.36947E+01  0.23932E+03      982.00
  0.65320E+00  0.55406E+03    0.45000E+00  0.45000E+00 -0.90000E+00  0.00000E+00  0.00000E+00  0.00000E+00    0.10182E+03  0.14211E+03 -0.24394E+03 -0.41062E+01 -0.36037E+01  0.23930E+03      982.00
  0.66971E+00  0.55400E+03    0.46250E+00  0.46250E+00 -0.92500E+00  0.00000E+00  0.00000E+00  0.00000E+00    0.10167E+03  0.14222E+03 -0.24389E+03 -0.39864E+01 -0.35156E+01  0.23928E+03      982.00
  0.68622E+00  0.55394E+03    0.47500E+00  0.47500E+00 -0.95000E+00  0.00000E+00  0.00000E+00  0.00000E+00    0.10151E+03  0.14233E+03 -0.24385E+03 -0.38693E+01 -0.34303E+01  0.23926E+03      982.00
  0.70272E+00  0.55388E+03    0.48750E+00  0.48750E+00 -0.97500E+00  0.00000E+00  0.00000E+00  0.00000E+00    0.10136E+03  0.14244E+03 -0.24380E+03 -0.37548E+01 -0.33476E+01  0.23924E+03      982.00
  0.71923E+00  0.55382E+03    0.50000E+00  0.50000E+00 -0.10000E+01  0.00000E+00  0.00000E+00  0.00000E+00    0.10121E+03  0.14256E+03 -0.24377E+03 -0.36431E+01 -0.32676E+01  0.23921E+03      982.00
