          Evm          Svm            E11          E22          E33          E23          E13          E12         SDEV11       SDEV22       SDEV33       SDEV23       SDEV13       SDEV12      TEMP
  0.00000E+00  0.14084E+03    0.00000E+00  0.00000E+00  0.00000E+00  0.00000E+00  0.00000E+00  0.00000E+00    0.38707E+02  0.51535E+02 -0.90242E+02  0.12075E+02  0.56819E+01  0.16874E+02      982.00
  0.24028E-01  0.14300E+03    0.12500E-01  0.12500E-01 -0.25000E-01  0.00000E+00  0.00000E+00  0.00000E+00    0.39532E+02  0.51633E+02 -0.91165E+02  0.11909E+02  0.51824E+01  0.19427E+02      982.00
  0.47936E-01  0.15159E+03    0.25000E-01  0.25000E-01 -0.50000E-01  0.00000E+00  0.00000E+00  0.00000E+00    0.42332E+02  0.53096E+02 -0.95428E+02  0.12106E+02  0.50262E+01  0.25080E+02      982.00
  0.71543E-01  0.17092E+03    0.37500E-01  0.37500E-01 -0.75000E-01  0.00000E+00  0.00000E+00  0.00000E+00    0.48183E+02  0.56518E+02 -0.10470E+03  0.12748E+02  0.52153E+01  0.36181E+02      982.00
  0.94514E-01  0.20825E+03    0.50000E-01  0.50000E-01 -0.10000E+00  0.00000E+00  0.00000E+00  0.00000E+00    0.58751E+02  0.62621E+02 -0.12137E+03  0.13962E+02  0.57462E+01  0.56353E+02      982.00
  0.11637E+00  0.26059E+03    0.62500E-01  0.62500E-01 -0.12500E+00  0.00000E+00  0.00000E+00  0.00000E+00    0.73271E+02  0.69870E+02 -0.14314E+03  0.15310E+02  0.62056E+01  0.83621E+02      982.00
  0.13697E+00  0.30705E+03    0.75000E-01  0.75000E-01 -0.15000E+00  0.00000E+00  0.00000E+00  0.00000E+00    0.86734E+02  0.74862E+02 -0.16160E+03  0.16164E+02  0.64238E+01  0.10725E+03      982.00
  0.15670E+00  0.35203E+03    0.87500E-01  0.87500E-01 -0.17500E+00  0.00000E+00  0.00000E+00  0.00000E+00    0.99514E+02  0.79622E+02 -0.17914E+03  0.17035E+02  0.69743E+01  0.12963E+03      982.00
  0.17579E+00  0.39387E+03    0.10000E+00  0.10000E+00 -0.20000E+00  0.00000E+00  0.00000E+00  0.00000E+00    0.11103E+03  0.84361E+02 -0.19539E+03  0.17796E+02  0.77546E+01  0.15007E+03      982.00
  0.19439E+00  0.42884E+03    0.11250E+00  0.11250E+00 -0.22500E+00  0.00000E+00  0.00000E+00  0.00000E+00    0.12050E+03  0.88608E+02 -0.20911E+03  0.18383E+02  0.87641E+01  0.16684E+03      982.00
  0.21268E+00  0.45049E+03    0.12500E+00  0.12500E+00 -0.25000E+00  0.00000E+00  0.00000E+00  0.00000E+00    0.12555E+03  0.91956E+02 -0.21751E+03  0.18770E+02  0.94995E+01  0.17732E+03      982.00
  0.23078E+00  0.45954E+03    0.13750E+00  0.13750E+00 -0.27500E+00  0.00000E+00  0.00000E+00  0.00000E+00    0.12563E+03  0.94869E+02 -0.22050E+03  0.18696E+02  0.95223E+01  0.18235E+03      982.00
  0.24878E+00  0.46651E+03    0.15000E+00  0.15000E+00 -0.30000E+00  0.00000E+00  0.00000E+00  0.00000E+00    0.12535E+03  0.97375E+02 -0.22272E+03  0.18478E+02  0.98457E+01  0.18629E+03      982.00
  0.26668E+00  0.47404E+03    0.16250E+00  0.16250E+00 -0.32500E+00  0.00000E+00  0.00000E+00  0.00000E+00    0.12614E+03  0.99096E+02 -0.22524E+03  0.18137E+02  0.10386E+02  0.19035E+03      982.00
  0.28450E+00  0.48228E+03    0.17500E+00  0.17500E+00 -0.35000E+00  0.00000E+00  0.00000E+00  0.00000E+00    0.12757E+03  0.10052E+03 -0.22809E+03  0.17738E+02  0.11041E+02  0.19466E+03      982.00
  0.30223E+00  0.49122E+03    0.18750E+00  0.18750E+00 -0.37500E+00  0.00000E+00  0.00000E+00  0.00000E+00    0.12954E+03  0.10163E+03 -0.23117E+03  0.17299E+02  0.11637E+02  0.19931E+03      982.00
  0.31988E+00  0.49959E+03    0.20000E+00  0.20000E+00 -0.40000E+00  0.00000E+00  0.00000E+00  0.00000E+00    0.13126E+03  0.10283E+03 -0.23409E+03  0.16875E+02  0.12220E+02  0.20362E+03      982.00
  0.33745E+00  0.50702E+03    0.21250E+00  0.21250E+00 -0.42500E+00  0.00000E+00  0.00000E+00  0.00000E+00    0.13279E+03  0.10383E+03 -0.23662E+03  0.16447E+02  0.12700E+02  0.20750E+03      982.00
  0.35495E+00  0.51433E+03    0.22500E+00  0.22500E+00 -0.45000E+00  0.00000E+00  0.00000E+00  0.00000E+00    0.13437E+03  0.10465E+03 -0.23902E+03  0.16027E+02  0.13044E+02  0.21139E+03      982.00
  0.37238E+00  0.52064E+03    0.23750E+00  0.23750E+00 -0.47500E+00  0.00000E+00  0.00000E+00  0.00000E+00    0.13570E+03  0.10530E+03 -0.24099E+03  0.15589E+02  0.13305E+02  0.21481E+03      982.00
  0.38974E+00  0.52642E+03    0.25000E+00  0.25000E+00 -0.50000E+00  0.00000E+00  0.00000E+00  0.00000E+00    0.13696E+03  0.10574E+03 -0.24270E+03  0.15129E+02  0.13459E+02  0.21803E+03      982.00
  0.40703E+00  0.53167E+03    0.26250E+00  0.26250E+00 -0.52500E+00  0.00000E+00  0.00000E+00  0.00000E+00    0.13819E+03  0.10600E+03 -0.24420E+03  0.14635E+02  0.13589E+02  0.22100E+03      982.00
  0.42425E+00  0.53624E+03    0.27500E+00  0.27500E+00 -0.55000E+00  0.00000E+00  0.00000E+00  0.00000E+00    0.13926E+03  0.10614E+03 -0.24540E+03  0.14107E+02  0.13647E+02  0.22367E+03      982.00
  0.44141E+00  0.53694E+03    0.28750E+00  0.28750E+00 -0.57500E+00  0.00000E+00  0.00000E+00  0.00000E+00    0.13963E+03  0.10542E+03 -0.24504E+03  0.13527E+02  0.13514E+02  0.22452E+03      982.00
  0.45852E+00  0.53782E+03    0.30000E+00  0.30000E+00 -0.60000E+00  0.00000E+00  0.00000E+00  0.00000E+00    0.13994E+03  0.10485E+03 -0.24478E+03  0.12940E+02  0.13351E+02  0.22544E+03      982.00
  0.47559E+00  0.53867E+03    0.31250E+00  0.31250E+00 -0.62500E+00  0.00000E+00  0.00000E+00  0.00000E+00    0.14018E+03  0.10436E+03 -0.24455E+03  0.12352E+02  0.13169E+02  0.22632E+03      982.00
  0.49262E+00  0.53965E+03    0.32500E+00  0.32500E+00 -0.65000E+00  0.00000E+00  0.00000E+00  0.00000E+00    0.14055E+03  0.10384E+03 -0.24439E+03  0.11759E+02  0.12953E+02  0.22724E+03      982.00
  0.50960E+00  0.54041E+03    0.33750E+00  0.33750E+00 -0.67500E+00  0.00000E+00  0.00000E+00  0.00000E+00    0.14065E+03  0.10354E+03 -0.24419E+03  0.11193E+02  0.12723E+02  0.22802E+03      982.00
  0.52654E+00  0.54130E+03    0.35000E+00  0.35000E+00 -0.70000E+00  0.00000E+00  0.00000E+00  0.00000E+00    0.14085E+03  0.10322E+03 -0.24407E+03  0.10612E+02  0.12425E+02  0.22884E+03      982.00
  0.54345E+00  0.54198E+03    0.36250E+00  0.36250E+00 -0.72500E+00  0.00000E+00  0.00000E+00  0.00000E+00    0.14079E+03  0.10312E+03 -0.24391E+03  0.10101E+02  0.12145E+02  0.22954E+03      982.00
  0.56033E+00  0.54224E+03    0.37500E+00  0.37500E+00 -0.75000E+00  0.00000E+00  0.00000E+00  0.00000E+00    0.14043E+03  0.10322E+03 -0.24365E+03  0.96496E+01  0.11897E+02  0.23000E+03      982.00
  0.57718E+00  0.54321E+03    0.38750E+00  0.38750E+00 -0.77500E+00  0.00000E+00  0.00000E+00  0.00000E+00    0.14061E+03  0.10303E+03 -0.24364E+03  0.91927E+01  0.11550E+02  0.23080E+03      982.00
  0.59400E+00  0.54355E+03    0.40000E+00  0.40000E+00 -0.80000E+00  0.00000E+00  0.00000E+00  0.00000E+00    0.14032E+03  0.10314E+03 -0.24346E+03  0.87688E+01  0.11224E+02  0.23126E+03      982.00
  0.61080E+00  0.54417E+03    0.41250E+00  0.41250E+00 -0.82500E+00  0.00000E+00  0.00000E+00  0.00000E+00    0.14022E+03  0.10316E+03 -0.24339E+03  0.83779E+01  0.10865E+02  0.23183E+03      982.00
  0.62757E+00  0.54475E+03    0.42500E+00  0.42500E+00 -0.85000E+00  0.00000E+00  0.00000E+00  0.00000E+00    0.14008E+03  0.10325E+03 -0.24333E+03  0.80204E+01  0.10498E+02  0.23238E+03      982.00
  0.64432E+00  0.54530E+03    0.43750E+00  0.43750E+00 -0.87500E+00  0.00000E+00  0.00000E+00  0.00000E+00    0.13987E+03  0.10341E+03 -0.24328E+03  0.76953E+01  0.10127E+02  0.23289E+03      982.00
  0.66105E+00  0.54585E+03    0.45000E+00  0.45000E+00 -0.90000E+00  0.00000E+00  0.00000E+00  0.00000E+00    0.13969E+03  0.10355E+03 -0.24324E+03  0.73948E+01  0.97521E+01  0.23338E+03      982.00
  0.67776E+00  0.54638E+03    0.46250E+00  0.46250E+00 -0.92500E+00  0.00000E+00  0.00000E+00  0.00000E+00    0.13951E+03  0.10371E+03 -0.24322E+03  0.71186E+01  0.93768E+01  0.23384E+03      982.00
  0.69445E+00  0.54688E+03    0.47500E+00  0.47500E+00 -0.95000E+00  0.00000E+00  0.00000E+00  0.00000E+00    0.13933E+03  0.10388E+03 -0.24321E+03  0.68644E+01  0.90037E+01  0.23429E+03      982.00
  0.71113E+00  0.54737E+03    0.48750E+00  0.48750E+00 -0.97500E+00  0.00000E+00  0.00000E+00  0.00000E+00    0.13916E+03  0.10405E+03 -0.24320E+03  0.66299E+01  0.86348E+01  0.23470E+03      982.00
  0.72779E+00  0.54780E+03    0.50000E+00  0.50000E+00 -0.10000E+01  0.00000E+00  0.00000E+00  0.00000E+00    0.13894E+03  0.10425E+03 -0.24320E+03  0.64151E+01  0.82749E+01  0.23507E+03      982.00
