          Evm          Svm            E11          E22          E33          E23          E13          E12         SDEV11       SDEV22       SDEV33       SDEV23       SDEV13       SDEV12      TEMP
  0.00000E+00  0.15906E+03    0.00000E+00  0.00000E+00  0.00000E+00  0.00000E+00  0.00000E+00  0.00000E+00    0.58226E+02  0.45071E+02 -0.10330E+03  0.77393E+01  0.99850E+01  0.15104E+02      982.00
  0.24353E-01  0.15818E+03    0.12500E-01  0.12500E-01 -0.25000E-01  0.00000E+00  0.00000E+00  0.00000E+00    0.57281E+02  0.45272E+02 -0.10255E+03  0.69042E+01  0.92336E+01  0.16850E+02      982.00
  0.48665E-01  0.16399E+03    0.25000E-01  0.25000E-01 -0.50000E-01  0.00000E+00  0.00000E+00  0.00000E+00    0.57451E+02  0.48324E+02 -0.10578E+03  0.69402E+01  0.89517E+01  0.20590E+02      982.00
  0.72852E-01  0.17912E+03    0.37500E-01  0.37500E-01 -0.75000E-01  0.00000E+00  0.00000E+00  0.00000E+00    0.58530E+02  0.55759E+02 -0.11429E+03  0.78183E+01  0.90199E+01  0.27453E+02      982.00
  0.96780E-01  0.20542E+03    0.50000E-01  0.50000E-01 -0.10000E+00  0.00000E+00  0.00000E+00  0.00000E+00    0.59137E+02  0.69507E+02 -0.12864E+03  0.94561E+01  0.91862E+01  0.38121E+02      982.00
  0.12026E+00  0.22399E+03    0.62500E-01  0.62500E-01 -0.12500E+00  0.00000E+00  0.00000E+00  0.00000E+00    0.57031E+02  0.81272E+02 -0.13830E+03  0.10539E+02  0.84832E+01  0.45255E+02      982.00
  0.14342E+00  0.23536E+03    0.75000E-01  0.75000E-01 -0.15000E+00  0.00000E+00  0.00000E+00  0.00000E+00    0.57161E+02  0.86745E+02 -0.14391E+03  0.10350E+02  0.73465E+01  0.50525E+02      982.00
  0.16635E+00  0.25582E+03    0.87500E-01  0.87500E-01 -0.17500E+00  0.00000E+00  0.00000E+00  0.00000E+00    0.59993E+02  0.94010E+02 -0.15400E+03  0.98621E+01  0.66953E+01  0.59963E+02      982.00
  0.18892E+00  0.28296E+03    0.10000E+00  0.10000E+00 -0.20000E+00  0.00000E+00  0.00000E+00  0.00000E+00    0.63881E+02  0.10343E+03 -0.16731E+03  0.94354E+01  0.64147E+01  0.71923E+02      982.00
  0.21110E+00  0.31039E+03    0.11250E+00  0.11250E+00 -0.22500E+00  0.00000E+00  0.00000E+00  0.00000E+00    0.67572E+02  0.11317E+03 -0.18074E+03  0.90102E+01  0.62471E+01  0.83509E+02      982.00
  0.23293E+00  0.33372E+03    0.12500E+00  0.12500E+00 -0.25000E+00  0.00000E+00  0.00000E+00  0.00000E+00    0.70460E+02  0.12181E+03 -0.19227E+03  0.85392E+01  0.60725E+01  0.92883E+02      982.00
  0.25454E+00  0.35196E+03    0.13750E+00  0.13750E+00 -0.27500E+00  0.00000E+00  0.00000E+00  0.00000E+00    0.72528E+02  0.12897E+03 -0.20150E+03  0.80480E+01  0.58692E+01  0.99722E+02      982.00
  0.27601E+00  0.36551E+03    0.15000E+00  0.15000E+00 -0.30000E+00  0.00000E+00  0.00000E+00  0.00000E+00    0.73992E+02  0.13465E+03 -0.20865E+03  0.75633E+01  0.56575E+01  0.10427E+03      982.00
  0.29741E+00  0.37523E+03    0.16250E+00  0.16250E+00 -0.32500E+00  0.00000E+00  0.00000E+00  0.00000E+00    0.75041E+02  0.13908E+03 -0.21412E+03  0.71056E+01  0.54522E+01  0.10696E+03      982.00
  0.31881E+00  0.38195E+03    0.17500E+00  0.17500E+00 -0.35000E+00  0.00000E+00  0.00000E+00  0.00000E+00    0.75863E+02  0.14245E+03 -0.21831E+03  0.66811E+01  0.52675E+01  0.10818E+03      982.00
  0.34025E+00  0.38640E+03    0.18750E+00  0.18750E+00 -0.37500E+00  0.00000E+00  0.00000E+00  0.00000E+00    0.76569E+02  0.14498E+03 -0.22155E+03  0.62961E+01  0.51101E+01  0.10826E+03      982.00
  0.36175E+00  0.38904E+03    0.20000E+00  0.20000E+00 -0.40000E+00  0.00000E+00  0.00000E+00  0.00000E+00    0.77268E+02  0.14677E+03 -0.22404E+03  0.59545E+01  0.49917E+01  0.10742E+03      982.00
  0.38334E+00  0.39021E+03    0.21250E+00  0.21250E+00 -0.42500E+00  0.00000E+00  0.00000E+00  0.00000E+00    0.77926E+02  0.14801E+03 -0.22594E+03  0.56753E+01  0.49194E+01  0.10575E+03      982.00
  0.40506E+00  0.39043E+03    0.22500E+00  0.22500E+00 -0.45000E+00  0.00000E+00  0.00000E+00  0.00000E+00    0.78735E+02  0.14873E+03 -0.22747E+03  0.54456E+01  0.48965E+01  0.10357E+03      982.00
  0.42690E+00  0.38991E+03    0.23750E+00  0.23750E+00 -0.47500E+00  0.00000E+00  0.00000E+00  0.00000E+00    0.79607E+02  0.14910E+03 -0.22871E+03  0.52784E+01  0.49210E+01  0.10093E+03      982.00
  0.44890E+00  0.38629E+03    0.25000E+00  0.25000E+00 -0.50000E+00  0.00000E+00  0.00000E+00  0.00000E+00    0.80404E+02  0.14788E+03 -0.22829E+03  0.51639E+01  0.49197E+01  0.97294E+02      982.00
  0.47106E+00  0.38286E+03    0.26250E+00  0.26250E+00 -0.52500E+00  0.00000E+00  0.00000E+00  0.00000E+00    0.81110E+02  0.14682E+03 -0.22793E+03  0.51036E+01  0.49571E+01  0.93627E+02      982.00
  0.49339E+00  0.37956E+03    0.27500E+00  0.27500E+00 -0.55000E+00  0.00000E+00  0.00000E+00  0.00000E+00    0.81855E+02  0.14577E+03 -0.22763E+03  0.50933E+01  0.50407E+01  0.89928E+02      982.00
  0.51588E+00  0.37659E+03    0.28750E+00  0.28750E+00 -0.57500E+00  0.00000E+00  0.00000E+00  0.00000E+00    0.82671E+02  0.14479E+03 -0.22746E+03  0.51127E+01  0.51481E+01  0.86328E+02      982.00
  0.53853E+00  0.37390E+03    0.30000E+00  0.30000E+00 -0.60000E+00  0.00000E+00  0.00000E+00  0.00000E+00    0.83538E+02  0.14386E+03 -0.22740E+03  0.51652E+01  0.52825E+01  0.82785E+02      982.00
  0.56133E+00  0.37148E+03    0.31250E+00  0.31250E+00 -0.62500E+00  0.00000E+00  0.00000E+00  0.00000E+00    0.84454E+02  0.14298E+03 -0.22744E+03  0.52458E+01  0.54387E+01  0.79313E+02      982.00
  0.58429E+00  0.36925E+03    0.32500E+00  0.32500E+00 -0.65000E+00  0.00000E+00  0.00000E+00  0.00000E+00    0.85424E+02  0.14211E+03 -0.22754E+03  0.53664E+01  0.56326E+01  0.75855E+02      982.00
  0.60740E+00  0.36749E+03    0.33750E+00  0.33750E+00 -0.67500E+00  0.00000E+00  0.00000E+00  0.00000E+00    0.86441E+02  0.14138E+03 -0.22782E+03  0.54920E+01  0.58239E+01  0.72588E+02      982.00
  0.63065E+00  0.36599E+03    0.35000E+00  0.35000E+00 -0.70000E+00  0.00000E+00  0.00000E+00  0.00000E+00    0.87481E+02  0.14072E+03 -0.22820E+03  0.56083E+01  0.59885E+01  0.69407E+02      982.00
  0.65403E+00  0.36476E+03    0.36250E+00  0.36250E+00 -0.72500E+00  0.00000E+00  0.00000E+00  0.00000E+00    0.88551E+02  0.14012E+03 -0.22867E+03  0.57512E+01  0.61800E+01  0.66323E+02      982.00
  0.67754E+00  0.36368E+03    0.37500E+00  0.37500E+00 -0.75000E+00  0.00000E+00  0.00000E+00  0.00000E+00    0.89646E+02  0.13952E+03 -0.22916E+03  0.59154E+01  0.63896E+01  0.63275E+02      982.00
  0.70117E+00  0.36304E+03    0.38750E+00  0.38750E+00 -0.77500E+00  0.00000E+00  0.00000E+00  0.00000E+00    0.90774E+02  0.13906E+03 -0.22984E+03  0.60606E+01  0.65709E+01  0.60426E+02      982.00
  0.72491E+00  0.36272E+03    0.40000E+00  0.40000E+00 -0.80000E+00  0.00000E+00  0.00000E+00  0.00000E+00    0.91935E+02  0.13870E+03 -0.23063E+03  0.62171E+01  0.67635E+01  0.57710E+02      982.00
  0.74875E+00  0.36259E+03    0.41250E+00  0.41250E+00 -0.82500E+00  0.00000E+00  0.00000E+00  0.00000E+00    0.93101E+02  0.13838E+03 -0.23148E+03  0.63543E+01  0.69254E+01  0.55091E+02      982.00
  0.77269E+00  0.36256E+03    0.42500E+00  0.42500E+00 -0.85000E+00  0.00000E+00  0.00000E+00  0.00000E+00    0.94271E+02  0.13806E+03 -0.23234E+03  0.64813E+01  0.70689E+01  0.52531E+02      982.00
  0.79672E+00  0.36291E+03    0.43750E+00  0.43750E+00 -0.87500E+00  0.00000E+00  0.00000E+00  0.00000E+00    0.95469E+02  0.13788E+03 -0.23335E+03  0.66029E+01  0.72066E+01  0.50150E+02      982.00
  0.82084E+00  0.36346E+03    0.45000E+00  0.45000E+00 -0.90000E+00  0.00000E+00  0.00000E+00  0.00000E+00    0.96676E+02  0.13776E+03 -0.23444E+03  0.67155E+01  0.73315E+01  0.47879E+02      982.00
  0.84502E+00  0.36421E+03    0.46250E+00  0.46250E+00 -0.92500E+00  0.00000E+00  0.00000E+00  0.00000E+00    0.97890E+02  0.13770E+03 -0.23559E+03  0.68184E+01  0.74432E+01  0.45715E+02      982.00
  0.86928E+00  0.36513E+03    0.47500E+00  0.47500E+00 -0.95000E+00  0.00000E+00  0.00000E+00  0.00000E+00    0.99110E+02  0.13769E+03 -0.23680E+03  0.69112E+01  0.75416E+01  0.43654E+02      982.00
  0.89360E+00  0.36620E+03    0.48750E+00  0.48750E+00 -0.97500E+00  0.00000E+00  0.00000E+00  0.00000E+00    0.10033E+03  0.13773E+03 -0.23807E+03  0.69936E+01  0.76268E+01  0.41693E+02      982.00
  0.91798E+00  0.36735E+03    0.50000E+00  0.50000E+00 -0.10000E+01  0.00000E+00  0.00000E+00  0.00000E+00    0.10156E+03  0.13778E+03 -0.23934E+03  0.70986E+01  0.77481E+01  0.39775E+02      982.00
