          Evm          Svm            E11          E22          E33          E23          E13          E12         SDEV11       SDEV22       SDEV33       SDEV23       SDEV13       SDEV12      TEMP
  0.00000E+00  0.16221E+03    0.00000E+00  0.00000E+00  0.00000E+00  0.00000E+00  0.00000E+00  0.00000E+00    0.45627E+02  0.54170E+02 -0.99797E+02 -0.10742E+02 -0.37789E+01  0.33965E+02      982.00
  0.23071E-01  0.18936E+03    0.12500E-01  0.12500E-01 -0.25000E-01  0.00000E+00  0.00000E+00  0.00000E+00    0.53494E+02  0.57955E+02 -0.11145E+03 -0.10831E+02 -0.37878E+01  0.50006E+02      982.00
  0.45141E-01  0.23301E+03    0.25000E-01  0.25000E-01 -0.50000E-01  0.00000E+00  0.00000E+00  0.00000E+00    0.65976E+02  0.62835E+02 -0.12881E+03 -0.11448E+02 -0.40111E+01  0.74185E+02      982.00
  0.65872E-01  0.24400E+03    0.37500E-01  0.37500E-01 -0.75000E-01  0.00000E+00  0.00000E+00  0.00000E+00    0.70146E+02  0.62475E+02 -0.13262E+03 -0.10967E+02 -0.29659E+01  0.80690E+02      982.00
  0.86254E-01  0.24877E+03    0.50000E-01  0.50000E-01 -0.10000E+00  0.00000E+00  0.00000E+00  0.00000E+00    0.71338E+02  0.62559E+02 -0.13390E+03 -0.10705E+02 -0.20143E+01  0.83932E+02      982.00
  0.10644E+00  0.25828E+03    0.62500E-01  0.62500E-01 -0.12500E+00  0.00000E+00  0.00000E+00  0.00000E+00    0.72985E+02  0.63939E+02 -0.13692E+03 -0.10713E+02 -0.15426E+01  0.89656E+02      982.00
  0.12632E+00  0.27311E+03    0.75000E-01  0.75000E-01 -0.15000E+00  0.00000E+00  0.00000E+00  0.00000E+00    0.75712E+02  0.66347E+02 -0.14206E+03 -0.10721E+02 -0.17128E+01  0.97919E+02      982.00
  0.14582E+00  0.29428E+03    0.87500E-01  0.87500E-01 -0.17500E+00  0.00000E+00  0.00000E+00  0.00000E+00    0.79859E+02  0.69805E+02 -0.14966E+03 -0.10678E+02 -0.24570E+01  0.10919E+03      982.00
  0.16490E+00  0.32437E+03    0.10000E+00  0.10000E+00 -0.20000E+00  0.00000E+00  0.00000E+00  0.00000E+00    0.86008E+02  0.74505E+02 -0.16051E+03 -0.10673E+02 -0.35751E+01  0.12486E+03      982.00
  0.18345E+00  0.35894E+03    0.11250E+00  0.11250E+00 -0.22500E+00  0.00000E+00  0.00000E+00  0.00000E+00    0.93126E+02  0.79897E+02 -0.17302E+03 -0.10625E+02 -0.48937E+01  0.14252E+03      982.00
  0.20153E+00  0.39392E+03    0.12500E+00  0.12500E+00 -0.25000E+00  0.00000E+00  0.00000E+00  0.00000E+00    0.10033E+03  0.85386E+02 -0.18571E+03 -0.10506E+02 -0.62114E+01  0.16016E+03      982.00
  0.21921E+00  0.42547E+03    0.13750E+00  0.13750E+00 -0.27500E+00  0.00000E+00  0.00000E+00  0.00000E+00    0.10680E+03  0.90422E+02 -0.19722E+03 -0.10285E+02 -0.73923E+01  0.17591E+03      982.00
  0.23659E+00  0.45213E+03    0.15000E+00  0.15000E+00 -0.30000E+00  0.00000E+00  0.00000E+00  0.00000E+00    0.11221E+03  0.94783E+02 -0.20699E+03 -0.99819E+01 -0.83774E+01  0.18910E+03      982.00
  0.25376E+00  0.47390E+03    0.16250E+00  0.16250E+00 -0.32500E+00  0.00000E+00  0.00000E+00  0.00000E+00    0.11658E+03  0.98450E+02 -0.21503E+03 -0.96210E+01 -0.91625E+01  0.19981E+03      982.00
  0.27077E+00  0.49139E+03    0.17500E+00  0.17500E+00 -0.35000E+00  0.00000E+00  0.00000E+00  0.00000E+00    0.12000E+03  0.10152E+03 -0.22152E+03 -0.92294E+01 -0.97683E+01  0.20838E+03      982.00
  0.28768E+00  0.50552E+03    0.18750E+00  0.18750E+00 -0.37500E+00  0.00000E+00  0.00000E+00  0.00000E+00    0.12268E+03  0.10410E+03 -0.22678E+03 -0.88304E+01 -0.10217E+02  0.21527E+03      982.00
  0.30450E+00  0.51733E+03    0.20000E+00  0.20000E+00 -0.40000E+00  0.00000E+00  0.00000E+00  0.00000E+00    0.12480E+03  0.10637E+03 -0.23117E+03 -0.84480E+01 -0.10531E+02  0.22105E+03      982.00
  0.32126E+00  0.52658E+03    0.21250E+00  0.21250E+00 -0.42500E+00  0.00000E+00  0.00000E+00  0.00000E+00    0.12648E+03  0.10815E+03 -0.23463E+03 -0.80653E+01 -0.10731E+02  0.22556E+03      982.00
  0.33797E+00  0.53448E+03    0.22500E+00  0.22500E+00 -0.45000E+00  0.00000E+00  0.00000E+00  0.00000E+00    0.12783E+03  0.10975E+03 -0.23757E+03 -0.77096E+01 -0.10840E+02  0.22942E+03      982.00
  0.35464E+00  0.54113E+03    0.23750E+00  0.23750E+00 -0.47500E+00  0.00000E+00  0.00000E+00  0.00000E+00    0.12893E+03  0.11111E+03 -0.24004E+03 -0.73749E+01 -0.10873E+02  0.23268E+03      982.00
  0.37127E+00  0.54672E+03    0.25000E+00  0.25000E+00 -0.50000E+00  0.00000E+00  0.00000E+00  0.00000E+00    0.12982E+03  0.11229E+03 -0.24211E+03 -0.70581E+01 -0.10849E+02  0.23543E+03      982.00
  0.38788E+00  0.55159E+03    0.26250E+00  0.26250E+00 -0.52500E+00  0.00000E+00  0.00000E+00  0.00000E+00    0.13056E+03  0.11334E+03 -0.24390E+03 -0.67719E+01 -0.10770E+02  0.23784E+03      982.00
  0.40446E+00  0.55586E+03    0.27500E+00  0.27500E+00 -0.55000E+00  0.00000E+00  0.00000E+00  0.00000E+00    0.13121E+03  0.11424E+03 -0.24546E+03 -0.65065E+01 -0.10650E+02  0.23995E+03      982.00
  0.42102E+00  0.55581E+03    0.28750E+00  0.28750E+00 -0.57500E+00  0.00000E+00  0.00000E+00  0.00000E+00    0.13143E+03  0.11393E+03 -0.24536E+03 -0.62662E+01 -0.10289E+02  0.24000E+03      982.00
  0.43757E+00  0.55582E+03    0.30000E+00  0.30000E+00 -0.60000E+00  0.00000E+00  0.00000E+00  0.00000E+00    0.13138E+03  0.11390E+03 -0.24528E+03 -0.60699E+01 -0.10010E+02  0.24009E+03      982.00
  0.45412E+00  0.55586E+03    0.31250E+00  0.31250E+00 -0.62500E+00  0.00000E+00  0.00000E+00  0.00000E+00    0.13155E+03  0.11362E+03 -0.24517E+03 -0.58403E+01 -0.96729E+01  0.24022E+03      982.00
  0.47066E+00  0.55590E+03    0.32500E+00  0.32500E+00 -0.65000E+00  0.00000E+00  0.00000E+00  0.00000E+00    0.13151E+03  0.11361E+03 -0.24511E+03 -0.56726E+01 -0.93964E+01  0.24031E+03      982.00
  0.48720E+00  0.55597E+03    0.33750E+00  0.33750E+00 -0.67500E+00  0.00000E+00  0.00000E+00  0.00000E+00    0.13148E+03  0.11360E+03 -0.24507E+03 -0.55170E+01 -0.91255E+01  0.24041E+03      982.00
  0.50373E+00  0.55604E+03    0.35000E+00  0.35000E+00 -0.70000E+00  0.00000E+00  0.00000E+00  0.00000E+00    0.13147E+03  0.11357E+03 -0.24504E+03 -0.53697E+01 -0.88580E+01  0.24050E+03      982.00
  0.52025E+00  0.55611E+03    0.36250E+00  0.36250E+00 -0.72500E+00  0.00000E+00  0.00000E+00  0.00000E+00    0.13146E+03  0.11354E+03 -0.24501E+03 -0.52295E+01 -0.85948E+01  0.24059E+03      982.00
  0.53677E+00  0.55616E+03    0.37500E+00  0.37500E+00 -0.75000E+00  0.00000E+00  0.00000E+00  0.00000E+00    0.13147E+03  0.11350E+03 -0.24497E+03 -0.50955E+01 -0.83368E+01  0.24067E+03      982.00
  0.55329E+00  0.55621E+03    0.38750E+00  0.38750E+00 -0.77500E+00  0.00000E+00  0.00000E+00  0.00000E+00    0.13148E+03  0.11346E+03 -0.24494E+03 -0.49672E+01 -0.80845E+01  0.24074E+03      982.00
  0.56980E+00  0.55625E+03    0.40000E+00  0.40000E+00 -0.80000E+00  0.00000E+00  0.00000E+00  0.00000E+00    0.13150E+03  0.11342E+03 -0.24491E+03 -0.48439E+01 -0.78383E+01  0.24080E+03      982.00
  0.58632E+00  0.55628E+03    0.41250E+00  0.41250E+00 -0.82500E+00  0.00000E+00  0.00000E+00  0.00000E+00    0.13152E+03  0.11337E+03 -0.24489E+03 -0.47252E+01 -0.75985E+01  0.24086E+03      982.00
  0.60282E+00  0.55631E+03    0.42500E+00  0.42500E+00 -0.85000E+00  0.00000E+00  0.00000E+00  0.00000E+00    0.13154E+03  0.11332E+03 -0.24486E+03 -0.46106E+01 -0.73652E+01  0.24091E+03      982.00
  0.61933E+00  0.55634E+03    0.43750E+00  0.43750E+00 -0.87500E+00  0.00000E+00  0.00000E+00  0.00000E+00    0.13157E+03  0.11326E+03 -0.24483E+03 -0.44999E+01 -0.71385E+01  0.24095E+03      982.00
  0.63583E+00  0.55636E+03    0.45000E+00  0.45000E+00 -0.90000E+00  0.00000E+00  0.00000E+00  0.00000E+00    0.13160E+03  0.11321E+03 -0.24481E+03 -0.43928E+01 -0.69184E+01  0.24099E+03      982.00
  0.65233E+00  0.55637E+03    0.46250E+00  0.46250E+00 -0.92500E+00  0.00000E+00  0.00000E+00  0.00000E+00    0.13163E+03  0.11316E+03 -0.24478E+03 -0.42890E+01 -0.67049E+01  0.24103E+03      982.00
  0.66883E+00  0.55638E+03    0.47500E+00  0.47500E+00 -0.95000E+00  0.00000E+00  0.00000E+00  0.00000E+00    0.13166E+03  0.11310E+03 -0.24476E+03 -0.41883E+01 -0.64980E+01  0.24106E+03      982.00
  0.68533E+00  0.55639E+03    0.48750E+00  0.48750E+00 -0.97500E+00  0.00000E+00  0.00000E+00  0.00000E+00    0.13169E+03  0.11305E+03 -0.24474E+03 -0.40905E+01 -0.62976E+01  0.24109E+03      982.00
  0.70182E+00  0.55640E+03    0.50000E+00  0.50000E+00 -0.10000E+01  0.00000E+00  0.00000E+00  0.00000E+00    0.13173E+03  0.11299E+03 -0.24472E+03 -0.39956E+01 -0.61035E+01  0.24111E+03      982.00
