          Evm          Svm            E11          E22          E33          E23          E13          E12         SDEV11       SDEV22       SDEV33       SDEV23       SDEV13       SDEV12      TEMP
  0.00000E+00  0.16253E+03    0.00000E+00  0.00000E+00  0.00000E+00  0.00000E+00  0.00000E+00  0.00000E+00    0.47054E+02  0.53313E+02 -0.10037E+03 -0.43269E+01 -0.61455E+01  0.34408E+02      982.00
  0.23157E-01  0.16157E+03    0.12500E-01  0.12500E-01 -0.25000E-01  0.00000E+00  0.00000E+00  0.00000E+00    0.48191E+02  0.51350E+02 -0.99541E+02 -0.33323E+01 -0.47120E+01  0.35135E+02      982.00
  0.46261E-01  0.16493E+03    0.25000E-01  0.25000E-01 -0.50000E-01  0.00000E+00  0.00000E+00  0.00000E+00    0.49836E+02  0.50775E+02 -0.10061E+03 -0.29209E+01 -0.39048E+01  0.38097E+02      982.00
  0.69136E-01  0.17359E+03    0.37500E-01  0.37500E-01 -0.75000E-01  0.00000E+00  0.00000E+00  0.00000E+00    0.52317E+02  0.51641E+02 -0.10396E+03 -0.27981E+01 -0.35314E+01  0.43808E+02      982.00
  0.91593E-01  0.18863E+03    0.50000E-01  0.50000E-01 -0.10000E+00  0.00000E+00  0.00000E+00  0.00000E+00    0.55919E+02  0.53970E+02 -0.10989E+03 -0.28685E+01 -0.35044E+01  0.52750E+02      982.00
  0.11344E+00  0.21207E+03    0.62500E-01  0.62500E-01 -0.12500E+00  0.00000E+00  0.00000E+00  0.00000E+00    0.61063E+02  0.57960E+02 -0.11902E+03 -0.31027E+01 -0.37731E+01  0.65880E+02      982.00
  0.13449E+00  0.24632E+03    0.75000E-01  0.75000E-01 -0.15000E+00  0.00000E+00  0.00000E+00  0.00000E+00    0.68164E+02  0.63893E+02 -0.13206E+03 -0.35037E+01 -0.43063E+01  0.84319E+02      982.00
  0.15459E+00  0.29185E+03    0.87500E-01  0.87500E-01 -0.17500E+00  0.00000E+00  0.00000E+00  0.00000E+00    0.77191E+02  0.71773E+02 -0.14896E+03 -0.40390E+01 -0.50525E+01  0.10817E+03      982.00
  0.17373E+00  0.34355E+03    0.10000E+00  0.10000E+00 -0.20000E+00  0.00000E+00  0.00000E+00  0.00000E+00    0.87013E+02  0.80784E+02 -0.16780E+03 -0.45858E+01 -0.58784E+01  0.13476E+03      982.00
  0.19205E+00  0.39128E+03    0.11250E+00  0.11250E+00 -0.22500E+00  0.00000E+00  0.00000E+00  0.00000E+00    0.95674E+02  0.89360E+02 -0.18503E+03 -0.49890E+01 -0.66226E+01  0.15899E+03      982.00
  0.20978E+00  0.42987E+03    0.12500E+00  0.12500E+00 -0.25000E+00  0.00000E+00  0.00000E+00  0.00000E+00    0.10232E+03  0.96634E+02 -0.19896E+03 -0.52201E+01 -0.72113E+01  0.17839E+03      982.00
  0.22714E+00  0.45934E+03    0.13750E+00  0.13750E+00 -0.27500E+00  0.00000E+00  0.00000E+00  0.00000E+00    0.10715E+03  0.10247E+03 -0.20962E+03 -0.53259E+01 -0.76470E+01  0.19309E+03      982.00
  0.24425E+00  0.48179E+03    0.15000E+00  0.15000E+00 -0.30000E+00  0.00000E+00  0.00000E+00  0.00000E+00    0.11071E+03  0.10707E+03 -0.21778E+03 -0.53580E+01 -0.79575E+01  0.20422E+03      982.00
  0.26120E+00  0.49935E+03    0.16250E+00  0.16250E+00 -0.32500E+00  0.00000E+00  0.00000E+00  0.00000E+00    0.11340E+03  0.11078E+03 -0.22418E+03 -0.53447E+01 -0.81715E+01  0.21290E+03      982.00
  0.27804E+00  0.51315E+03    0.17500E+00  0.17500E+00 -0.35000E+00  0.00000E+00  0.00000E+00  0.00000E+00    0.11548E+03  0.11374E+03 -0.22922E+03 -0.53054E+01 -0.83067E+01  0.21970E+03      982.00
  0.29479E+00  0.52415E+03    0.18750E+00  0.18750E+00 -0.37500E+00  0.00000E+00  0.00000E+00  0.00000E+00    0.11714E+03  0.11611E+03 -0.23324E+03 -0.52501E+01 -0.83790E+01  0.22512E+03      982.00
  0.31147E+00  0.53306E+03    0.20000E+00  0.20000E+00 -0.40000E+00  0.00000E+00  0.00000E+00  0.00000E+00    0.11847E+03  0.11803E+03 -0.23650E+03 -0.51834E+01 -0.84015E+01  0.22951E+03      982.00
  0.32811E+00  0.54037E+03    0.21250E+00  0.21250E+00 -0.42500E+00  0.00000E+00  0.00000E+00  0.00000E+00    0.11957E+03  0.11959E+03 -0.23916E+03 -0.51099E+01 -0.83861E+01  0.23311E+03      982.00
  0.34471E+00  0.54645E+03    0.22500E+00  0.22500E+00 -0.45000E+00  0.00000E+00  0.00000E+00  0.00000E+00    0.12049E+03  0.12088E+03 -0.24136E+03 -0.50284E+01 -0.83365E+01  0.23611E+03      982.00
  0.36127E+00  0.55221E+03    0.23750E+00  0.23750E+00 -0.47500E+00  0.00000E+00  0.00000E+00  0.00000E+00    0.12129E+03  0.12212E+03 -0.24341E+03 -0.49330E+01 -0.82609E+01  0.23899E+03      982.00
  0.37780E+00  0.55606E+03    0.25000E+00  0.25000E+00 -0.50000E+00  0.00000E+00  0.00000E+00  0.00000E+00    0.12198E+03  0.12285E+03 -0.24482E+03 -0.48539E+01 -0.81706E+01  0.24088E+03      982.00
  0.39431E+00  0.56034E+03    0.26250E+00  0.26250E+00 -0.52500E+00  0.00000E+00  0.00000E+00  0.00000E+00    0.12260E+03  0.12372E+03 -0.24631E+03 -0.47504E+01 -0.80657E+01  0.24305E+03      982.00
  0.41080E+00  0.56348E+03    0.27500E+00  0.27500E+00 -0.55000E+00  0.00000E+00  0.00000E+00  0.00000E+00    0.12312E+03  0.12432E+03 -0.24744E+03 -0.46594E+01 -0.79482E+01  0.24460E+03      982.00
  0.42726E+00  0.56623E+03    0.28750E+00  0.28750E+00 -0.57500E+00  0.00000E+00  0.00000E+00  0.00000E+00    0.12361E+03  0.12481E+03 -0.24842E+03 -0.45662E+01 -0.78207E+01  0.24598E+03      982.00
  0.44372E+00  0.56628E+03    0.30000E+00  0.30000E+00 -0.60000E+00  0.00000E+00  0.00000E+00  0.00000E+00    0.12383E+03  0.12453E+03 -0.24836E+03 -0.43638E+01 -0.74686E+01  0.24608E+03      982.00
  0.46016E+00  0.56661E+03    0.31250E+00  0.31250E+00 -0.62500E+00  0.00000E+00  0.00000E+00  0.00000E+00    0.12401E+03  0.12439E+03 -0.24840E+03 -0.42631E+01 -0.72923E+01  0.24631E+03      982.00
  0.47660E+00  0.56662E+03    0.32500E+00  0.32500E+00 -0.65000E+00  0.00000E+00  0.00000E+00  0.00000E+00    0.12408E+03  0.12428E+03 -0.24836E+03 -0.42257E+01 -0.72138E+01  0.24635E+03      982.00
  0.49304E+00  0.56673E+03    0.33750E+00  0.33750E+00 -0.67500E+00  0.00000E+00  0.00000E+00  0.00000E+00    0.12418E+03  0.12414E+03 -0.24831E+03 -0.40635E+01 -0.69440E+01  0.24648E+03      982.00
  0.50947E+00  0.56675E+03    0.35000E+00  0.35000E+00 -0.70000E+00  0.00000E+00  0.00000E+00  0.00000E+00    0.12423E+03  0.12405E+03 -0.24828E+03 -0.40235E+01 -0.68684E+01  0.24652E+03      982.00
  0.52590E+00  0.56685E+03    0.36250E+00  0.36250E+00 -0.72500E+00  0.00000E+00  0.00000E+00  0.00000E+00    0.12432E+03  0.12392E+03 -0.24824E+03 -0.38669E+01 -0.66129E+01  0.24663E+03      982.00
  0.54232E+00  0.56686E+03    0.37500E+00  0.37500E+00 -0.75000E+00  0.00000E+00  0.00000E+00  0.00000E+00    0.12437E+03  0.12384E+03 -0.24821E+03 -0.38271E+01 -0.65422E+01  0.24667E+03      982.00
  0.55874E+00  0.56694E+03    0.38750E+00  0.38750E+00 -0.77500E+00  0.00000E+00  0.00000E+00  0.00000E+00    0.12447E+03  0.12372E+03 -0.24818E+03 -0.36763E+01 -0.63003E+01  0.24676E+03      982.00
  0.57516E+00  0.56695E+03    0.40000E+00  0.40000E+00 -0.80000E+00  0.00000E+00  0.00000E+00  0.00000E+00    0.12452E+03  0.12364E+03 -0.24816E+03 -0.36370E+01 -0.62338E+01  0.24679E+03      982.00
  0.59157E+00  0.56702E+03    0.41250E+00  0.41250E+00 -0.82500E+00  0.00000E+00  0.00000E+00  0.00000E+00    0.12462E+03  0.12352E+03 -0.24814E+03 -0.34920E+01 -0.60051E+01  0.24687E+03      982.00
  0.60798E+00  0.56705E+03    0.42500E+00  0.42500E+00 -0.85000E+00  0.00000E+00  0.00000E+00  0.00000E+00    0.12471E+03  0.12341E+03 -0.24812E+03 -0.34523E+01 -0.59508E+01  0.24690E+03      982.00
  0.62439E+00  0.56708E+03    0.43750E+00  0.43750E+00 -0.87500E+00  0.00000E+00  0.00000E+00  0.00000E+00    0.12479E+03  0.12331E+03 -0.24810E+03 -0.33654E+01 -0.58144E+01  0.24695E+03      982.00
  0.64080E+00  0.56711E+03    0.45000E+00  0.45000E+00 -0.90000E+00  0.00000E+00  0.00000E+00  0.00000E+00    0.12486E+03  0.12322E+03 -0.24809E+03 -0.32754E+01 -0.56744E+01  0.24699E+03      982.00
  0.65720E+00  0.56714E+03    0.46250E+00  0.46250E+00 -0.92500E+00  0.00000E+00  0.00000E+00  0.00000E+00    0.12494E+03  0.12313E+03 -0.24807E+03 -0.31872E+01 -0.55387E+01  0.24702E+03      982.00
  0.67360E+00  0.56717E+03    0.47500E+00  0.47500E+00 -0.95000E+00  0.00000E+00  0.00000E+00  0.00000E+00    0.12502E+03  0.12304E+03 -0.24806E+03 -0.31009E+01 -0.54069E+01  0.24706E+03      982.00
  0.69001E+00  0.56720E+03    0.48750E+00  0.48750E+00 -0.97500E+00  0.00000E+00  0.00000E+00  0.00000E+00    0.12509E+03  0.12295E+03 -0.24805E+03 -0.30163E+01 -0.52792E+01  0.24709E+03      982.00
  0.70640E+00  0.56723E+03    0.50000E+00  0.50000E+00 -0.10000E+01  0.00000E+00  0.00000E+00  0.00000E+00    0.12517E+03  0.12287E+03 -0.24804E+03 -0.29336E+01 -0.51553E+01  0.24713E+03      982.00
