          Evm          Svm            E11          E22          E33          E23          E13          E12         SDEV11       SDEV22       SDEV33       SDEV23       SDEV13       SDEV12      TEMP
  0.00000E+00  0.14824E+03    0.00000E+00  0.00000E+00  0.00000E+00  0.00000E+00  0.00000E+00  0.00000E+00    0.41794E+02  0.52712E+02 -0.94505E+02 -0.11893E+02 -0.92168E+01  0.19233E+02      982.00
  0.23908E-01  0.14804E+03    0.12500E-01  0.12500E-01 -0.25000E-01  0.00000E+00  0.00000E+00  0.00000E+00    0.41718E+02  0.52384E+02 -0.94102E+02 -0.11547E+02 -0.83741E+01  0.20795E+02      982.00
  0.47744E-01  0.15322E+03    0.25000E-01  0.25000E-01 -0.50000E-01  0.00000E+00  0.00000E+00  0.00000E+00    0.43200E+02  0.53342E+02 -0.96542E+02 -0.11532E+02 -0.81779E+01  0.24682E+02      982.00
  0.71373E-01  0.16646E+03    0.37500E-01  0.37500E-01 -0.75000E-01  0.00000E+00  0.00000E+00  0.00000E+00    0.46799E+02  0.56184E+02 -0.10298E+03 -0.11815E+02 -0.86175E+01  0.32356E+02      982.00
  0.94572E-01  0.19308E+03    0.50000E-01  0.50000E-01 -0.10000E+00  0.00000E+00  0.00000E+00  0.00000E+00    0.53482E+02  0.61966E+02 -0.11545E+03 -0.12401E+02 -0.97019E+01  0.46530E+02      982.00
  0.11699E+00  0.24222E+03    0.62500E-01  0.62500E-01 -0.12500E+00  0.00000E+00  0.00000E+00  0.00000E+00    0.65010E+02  0.72128E+02 -0.13714E+03 -0.13228E+02 -0.11380E+02  0.71658E+02      982.00
  0.13823E+00  0.30463E+03    0.75000E-01  0.75000E-01 -0.15000E+00  0.00000E+00  0.00000E+00  0.00000E+00    0.81624E+02  0.81756E+02 -0.16338E+03 -0.13328E+02 -0.12431E+02  0.10287E+03      982.00
  0.15834E+00  0.34168E+03    0.87500E-01  0.87500E-01 -0.17500E+00  0.00000E+00  0.00000E+00  0.00000E+00    0.96719E+02  0.81831E+02 -0.17855E+03 -0.12658E+02 -0.12258E+02  0.12099E+03      982.00
  0.17793E+00  0.37247E+03    0.10000E+00  0.10000E+00 -0.20000E+00  0.00000E+00  0.00000E+00  0.00000E+00    0.10975E+03  0.81146E+02 -0.19090E+03 -0.12185E+02 -0.12150E+02  0.13569E+03      982.00
  0.19715E+00  0.40147E+03    0.11250E+00  0.11250E+00 -0.22500E+00  0.00000E+00  0.00000E+00  0.00000E+00    0.12076E+03  0.81680E+02 -0.20244E+03 -0.11799E+02 -0.12150E+02  0.14940E+03      982.00
  0.21606E+00  0.42597E+03    0.12500E+00  0.12500E+00 -0.25000E+00  0.00000E+00  0.00000E+00  0.00000E+00    0.12927E+03  0.82930E+02 -0.21220E+03 -0.11396E+02 -0.12196E+02  0.16093E+03      982.00
  0.23474E+00  0.44559E+03    0.13750E+00  0.13750E+00 -0.27500E+00  0.00000E+00  0.00000E+00  0.00000E+00    0.13553E+03  0.84518E+02 -0.22005E+03 -0.10979E+02 -0.12272E+02  0.17014E+03      982.00
  0.25326E+00  0.46112E+03    0.15000E+00  0.15000E+00 -0.30000E+00  0.00000E+00  0.00000E+00  0.00000E+00    0.14007E+03  0.86213E+02 -0.22629E+03 -0.10566E+02 -0.12360E+02  0.17743E+03      982.00
  0.27166E+00  0.47355E+03    0.16250E+00  0.16250E+00 -0.32500E+00  0.00000E+00  0.00000E+00  0.00000E+00    0.14336E+03  0.87946E+02 -0.23130E+03 -0.10173E+02 -0.12453E+02  0.18330E+03      982.00
  0.28998E+00  0.48407E+03    0.17500E+00  0.17500E+00 -0.35000E+00  0.00000E+00  0.00000E+00  0.00000E+00    0.14582E+03  0.89719E+02 -0.23554E+03 -0.97771E+01 -0.12509E+02  0.18831E+03      982.00
  0.30823E+00  0.49264E+03    0.18750E+00  0.18750E+00 -0.37500E+00  0.00000E+00  0.00000E+00  0.00000E+00    0.14761E+03  0.91384E+02 -0.23899E+03 -0.94326E+01 -0.12568E+02  0.19241E+03      982.00
  0.32642E+00  0.49983E+03    0.20000E+00  0.20000E+00 -0.40000E+00  0.00000E+00  0.00000E+00  0.00000E+00    0.14899E+03  0.92893E+02 -0.24188E+03 -0.91286E+01 -0.12617E+02  0.19588E+03      982.00
  0.34457E+00  0.50591E+03    0.21250E+00  0.21250E+00 -0.42500E+00  0.00000E+00  0.00000E+00  0.00000E+00    0.15009E+03  0.94216E+02 -0.24430E+03 -0.88529E+01 -0.12638E+02  0.19883E+03      982.00
  0.36268E+00  0.51141E+03    0.22500E+00  0.22500E+00 -0.45000E+00  0.00000E+00  0.00000E+00  0.00000E+00    0.15102E+03  0.95433E+02 -0.24645E+03 -0.85869E+01 -0.12614E+02  0.20154E+03      982.00
  0.38075E+00  0.51587E+03    0.23750E+00  0.23750E+00 -0.47500E+00  0.00000E+00  0.00000E+00  0.00000E+00    0.15186E+03  0.96329E+02 -0.24819E+03 -0.83926E+01 -0.12608E+02  0.20374E+03      982.00
  0.39879E+00  0.52063E+03    0.25000E+00  0.25000E+00 -0.50000E+00  0.00000E+00  0.00000E+00  0.00000E+00    0.15261E+03  0.97351E+02 -0.24996E+03 -0.81474E+01 -0.12519E+02  0.20617E+03      982.00
  0.41679E+00  0.52416E+03    0.26250E+00  0.26250E+00 -0.52500E+00  0.00000E+00  0.00000E+00  0.00000E+00    0.15333E+03  0.97946E+02 -0.25128E+03 -0.80214E+01 -0.12504E+02  0.20794E+03      982.00
  0.43477E+00  0.52819E+03    0.27500E+00  0.27500E+00 -0.55000E+00  0.00000E+00  0.00000E+00  0.00000E+00    0.15396E+03  0.98729E+02 -0.25269E+03 -0.77988E+01 -0.12388E+02  0.21007E+03      982.00
  0.45271E+00  0.52909E+03    0.28750E+00  0.28750E+00 -0.57500E+00  0.00000E+00  0.00000E+00  0.00000E+00    0.15398E+03  0.98815E+02 -0.25280E+03 -0.77260E+01 -0.12327E+02  0.21074E+03      982.00
  0.47063E+00  0.52992E+03    0.30000E+00  0.30000E+00 -0.60000E+00  0.00000E+00  0.00000E+00  0.00000E+00    0.15398E+03  0.98865E+02 -0.25284E+03 -0.76193E+01 -0.12215E+02  0.21141E+03      982.00
  0.48852E+00  0.53078E+03    0.31250E+00  0.31250E+00 -0.62500E+00  0.00000E+00  0.00000E+00  0.00000E+00    0.15400E+03  0.98881E+02 -0.25288E+03 -0.75272E+01 -0.12112E+02  0.21210E+03      982.00
  0.50639E+00  0.53168E+03    0.32500E+00  0.32500E+00 -0.65000E+00  0.00000E+00  0.00000E+00  0.00000E+00    0.15405E+03  0.98873E+02 -0.25292E+03 -0.74459E+01 -0.12015E+02  0.21282E+03      982.00
  0.52423E+00  0.53262E+03    0.33750E+00  0.33750E+00 -0.67500E+00  0.00000E+00  0.00000E+00  0.00000E+00    0.15411E+03  0.98843E+02 -0.25296E+03 -0.73752E+01 -0.11928E+02  0.21357E+03      982.00
  0.54203E+00  0.53361E+03    0.35000E+00  0.35000E+00 -0.70000E+00  0.00000E+00  0.00000E+00  0.00000E+00    0.15420E+03  0.98794E+02 -0.25300E+03 -0.73142E+01 -0.11849E+02  0.21435E+03      982.00
  0.55981E+00  0.53464E+03    0.36250E+00  0.36250E+00 -0.72500E+00  0.00000E+00  0.00000E+00  0.00000E+00    0.15430E+03  0.98728E+02 -0.25303E+03 -0.72622E+01 -0.11779E+02  0.21517E+03      982.00
  0.57756E+00  0.53570E+03    0.37500E+00  0.37500E+00 -0.75000E+00  0.00000E+00  0.00000E+00  0.00000E+00    0.15441E+03  0.98645E+02 -0.25306E+03 -0.72183E+01 -0.11718E+02  0.21601E+03      982.00
  0.59528E+00  0.53679E+03    0.38750E+00  0.38750E+00 -0.77500E+00  0.00000E+00  0.00000E+00  0.00000E+00    0.15453E+03  0.98548E+02 -0.25308E+03 -0.71815E+01 -0.11665E+02  0.21689E+03      982.00
  0.61296E+00  0.53792E+03    0.40000E+00  0.40000E+00 -0.80000E+00  0.00000E+00  0.00000E+00  0.00000E+00    0.15466E+03  0.98437E+02 -0.25309E+03 -0.71505E+01 -0.11619E+02  0.21779E+03      982.00
  0.63060E+00  0.53907E+03    0.41250E+00  0.41250E+00 -0.82500E+00  0.00000E+00  0.00000E+00  0.00000E+00    0.15478E+03  0.98313E+02 -0.25309E+03 -0.71240E+01 -0.11580E+02  0.21873E+03      982.00
  0.64821E+00  0.54024E+03    0.42500E+00  0.42500E+00 -0.85000E+00  0.00000E+00  0.00000E+00  0.00000E+00    0.15490E+03  0.98179E+02 -0.25308E+03 -0.71005E+01 -0.11546E+02  0.21968E+03      982.00
  0.66577E+00  0.54143E+03    0.43750E+00  0.43750E+00 -0.87500E+00  0.00000E+00  0.00000E+00  0.00000E+00    0.15503E+03  0.98035E+02 -0.25306E+03 -0.70783E+01 -0.11514E+02  0.22066E+03      982.00
  0.68330E+00  0.54297E+03    0.45000E+00  0.45000E+00 -0.90000E+00  0.00000E+00  0.00000E+00  0.00000E+00    0.15524E+03  0.97912E+02 -0.25315E+03 -0.70326E+01 -0.11454E+02  0.22183E+03      982.00
  0.70078E+00  0.54418E+03    0.46250E+00  0.46250E+00 -0.92500E+00  0.00000E+00  0.00000E+00  0.00000E+00    0.15534E+03  0.97753E+02 -0.25310E+03 -0.70090E+01 -0.11424E+02  0.22284E+03      982.00
  0.71823E+00  0.54539E+03    0.47500E+00  0.47500E+00 -0.95000E+00  0.00000E+00  0.00000E+00  0.00000E+00    0.15544E+03  0.97588E+02 -0.25302E+03 -0.69815E+01 -0.11390E+02  0.22387E+03      982.00
  0.73562E+00  0.54659E+03    0.48750E+00  0.48750E+00 -0.97500E+00  0.00000E+00  0.00000E+00  0.00000E+00    0.15552E+03  0.97419E+02 -0.25294E+03 -0.69479E+01 -0.11351E+02  0.22490E+03      982.00
  0.75298E+00  0.54777E+03    0.50000E+00  0.50000E+00 -0.10000E+01  0.00000E+00  0.00000E+00  0.00000E+00    0.15558E+03  0.97247E+02 -0.25283E+03 -0.69065E+01 -0.11303E+02  0.22594E+03      982.00
