          Evm          Svm            E11          E22          E33          E23          E13          E12         SDEV11       SDEV22       SDEV33       SDEV23       SDEV13       SDEV12      TEMP
  0.00000E+00  0.25388E+03    0.00000E+00  0.00000E+00  0.00000E+00  0.00000E+00  0.00000E+00  0.00000E+00    0.90312E+02  0.78566E+02 -0.16888E+03  0.88917E+00 -0.74457E+01 -0.20427E+01      982.00
  0.24945E-01  0.23429E+03    0.12500E-01  0.12500E-01 -0.25000E-01  0.00000E+00  0.00000E+00  0.00000E+00    0.82959E+02  0.73017E+02 -0.15598E+03  0.55531E+00 -0.48055E+01 -0.17054E+01      982.00
  0.49910E-01  0.22217E+03    0.25000E-01  0.25000E-01 -0.50000E-01  0.00000E+00  0.00000E+00  0.00000E+00    0.78117E+02  0.69855E+02 -0.14797E+03  0.39935E+00 -0.35492E+01 -0.13776E+01      982.00
  0.74886E-01  0.22534E+03    0.37500E-01  0.37500E-01 -0.75000E-01  0.00000E+00  0.00000E+00  0.00000E+00    0.79341E+02  0.70749E+02 -0.15009E+03  0.32477E+00 -0.31727E+01 -0.14058E+01      982.00
  0.99863E-01  0.23982E+03    0.50000E-01  0.50000E-01 -0.10000E+00  0.00000E+00  0.00000E+00  0.00000E+00    0.85279E+02  0.74416E+02 -0.15969E+03  0.30846E+00 -0.34039E+01 -0.17865E+01      982.00
  0.12483E+00  0.26395E+03    0.62500E-01  0.62500E-01 -0.12500E+00  0.00000E+00  0.00000E+00  0.00000E+00    0.94967E+02  0.80715E+02 -0.17568E+03  0.34654E+00 -0.42343E+01 -0.23991E+01      982.00
  0.14979E+00  0.29123E+03    0.75000E-01  0.75000E-01 -0.15000E+00  0.00000E+00  0.00000E+00  0.00000E+00    0.10569E+03  0.88059E+02 -0.19375E+03  0.42914E+00 -0.54914E+01 -0.30714E+01      982.00
  0.17474E+00  0.31863E+03    0.87500E-01  0.87500E-01 -0.17500E+00  0.00000E+00  0.00000E+00  0.00000E+00    0.11605E+03  0.95843E+02 -0.21189E+03  0.56345E+00 -0.71524E+01 -0.36770E+01      982.00
  0.19968E+00  0.34519E+03    0.10000E+00  0.10000E+00 -0.20000E+00  0.00000E+00  0.00000E+00  0.00000E+00    0.12558E+03  0.10391E+03 -0.22949E+03  0.74774E+00 -0.91755E+01 -0.41134E+01      982.00
  0.22461E+00  0.37032E+03    0.11250E+00  0.11250E+00 -0.22500E+00  0.00000E+00  0.00000E+00  0.00000E+00    0.13418E+03  0.11194E+03 -0.24612E+03  0.10018E+01 -0.11609E+02 -0.44347E+01      982.00
  0.24953E+00  0.39376E+03    0.12500E+00  0.12500E+00 -0.25000E+00  0.00000E+00  0.00000E+00  0.00000E+00    0.14176E+03  0.11987E+03 -0.26163E+03  0.13034E+01 -0.14222E+02 -0.45905E+01      982.00
  0.27445E+00  0.41538E+03    0.13750E+00  0.13750E+00 -0.27500E+00  0.00000E+00  0.00000E+00  0.00000E+00    0.14830E+03  0.12759E+03 -0.27589E+03  0.16899E+01 -0.17175E+02 -0.46152E+01      982.00
  0.29936E+00  0.43508E+03    0.15000E+00  0.15000E+00 -0.30000E+00  0.00000E+00  0.00000E+00  0.00000E+00    0.15382E+03  0.13502E+03 -0.28884E+03  0.21577E+01 -0.20369E+02 -0.45271E+01      982.00
  0.32425E+00  0.45204E+03    0.16250E+00  0.16250E+00 -0.32500E+00  0.00000E+00  0.00000E+00  0.00000E+00    0.15813E+03  0.14182E+03 -0.29994E+03  0.26473E+01 -0.23388E+02 -0.43405E+01      982.00
  0.34914E+00  0.46577E+03    0.17500E+00  0.17500E+00 -0.35000E+00  0.00000E+00  0.00000E+00  0.00000E+00    0.16131E+03  0.14762E+03 -0.30893E+03  0.30724E+01 -0.25724E+02 -0.40998E+01      982.00
  0.37401E+00  0.47638E+03    0.18750E+00  0.18750E+00 -0.37500E+00  0.00000E+00  0.00000E+00  0.00000E+00    0.16357E+03  0.15237E+03 -0.31594E+03  0.32921E+01 -0.26977E+02 -0.37145E+01      982.00
  0.39888E+00  0.48603E+03    0.20000E+00  0.20000E+00 -0.40000E+00  0.00000E+00  0.00000E+00  0.00000E+00    0.16560E+03  0.15672E+03 -0.32232E+03  0.34814E+01 -0.27938E+02 -0.33838E+01      982.00
  0.42375E+00  0.49396E+03    0.21250E+00  0.21250E+00 -0.42500E+00  0.00000E+00  0.00000E+00  0.00000E+00    0.16718E+03  0.16043E+03 -0.32761E+03  0.35631E+01 -0.28288E+02 -0.30744E+01      982.00
  0.44862E+00  0.50169E+03    0.22500E+00  0.22500E+00 -0.45000E+00  0.00000E+00  0.00000E+00  0.00000E+00    0.16871E+03  0.16405E+03 -0.33276E+03  0.36457E+01 -0.28682E+02 -0.27943E+01      982.00
  0.47349E+00  0.50833E+03    0.23750E+00  0.23750E+00 -0.47500E+00  0.00000E+00  0.00000E+00  0.00000E+00    0.16998E+03  0.16724E+03 -0.33722E+03  0.36626E+01 -0.28721E+02 -0.25540E+01      982.00
  0.49837E+00  0.51227E+03    0.25000E+00  0.25000E+00 -0.50000E+00  0.00000E+00  0.00000E+00  0.00000E+00    0.17051E+03  0.16936E+03 -0.33987E+03  0.36590E+01 -0.28633E+02 -0.24969E+01      982.00
  0.52325E+00  0.51574E+03    0.26250E+00  0.26250E+00 -0.52500E+00  0.00000E+00  0.00000E+00  0.00000E+00    0.17097E+03  0.17124E+03 -0.34222E+03  0.36296E+01 -0.28422E+02 -0.24394E+01      982.00
  0.54813E+00  0.51893E+03    0.27500E+00  0.27500E+00 -0.55000E+00  0.00000E+00  0.00000E+00  0.00000E+00    0.17142E+03  0.17296E+03 -0.34438E+03  0.35980E+01 -0.28227E+02 -0.24122E+01      982.00
  0.57302E+00  0.52120E+03    0.28750E+00  0.28750E+00 -0.57500E+00  0.00000E+00  0.00000E+00  0.00000E+00    0.17166E+03  0.17427E+03 -0.34594E+03  0.35355E+01 -0.27877E+02 -0.24124E+01      982.00
  0.59791E+00  0.52364E+03    0.30000E+00  0.30000E+00 -0.60000E+00  0.00000E+00  0.00000E+00  0.00000E+00    0.17198E+03  0.17561E+03 -0.34759E+03  0.34896E+01 -0.27648E+02 -0.24325E+01      982.00
  0.62280E+00  0.52599E+03    0.31250E+00  0.31250E+00 -0.62500E+00  0.00000E+00  0.00000E+00  0.00000E+00    0.17229E+03  0.17690E+03 -0.34919E+03  0.34303E+01 -0.27367E+02 -0.25064E+01      982.00
  0.64770E+00  0.52791E+03    0.32500E+00  0.32500E+00 -0.65000E+00  0.00000E+00  0.00000E+00  0.00000E+00    0.17256E+03  0.17793E+03 -0.35049E+03  0.33795E+01 -0.27163E+02 -0.25859E+01      982.00
  0.67259E+00  0.52928E+03    0.33750E+00  0.33750E+00 -0.67500E+00  0.00000E+00  0.00000E+00  0.00000E+00    0.17270E+03  0.17872E+03 -0.35142E+03  0.33299E+01 -0.26942E+02 -0.26522E+01      982.00
  0.69749E+00  0.53044E+03    0.35000E+00  0.35000E+00 -0.70000E+00  0.00000E+00  0.00000E+00  0.00000E+00    0.17283E+03  0.17941E+03 -0.35224E+03  0.32494E+01 -0.26619E+02 -0.27567E+01      982.00
  0.72239E+00  0.53132E+03    0.36250E+00  0.36250E+00 -0.72500E+00  0.00000E+00  0.00000E+00  0.00000E+00    0.17289E+03  0.17996E+03 -0.35285E+03  0.31700E+01 -0.26296E+02 -0.28832E+01      982.00
  0.74730E+00  0.53189E+03    0.37500E+00  0.37500E+00 -0.75000E+00  0.00000E+00  0.00000E+00  0.00000E+00    0.17288E+03  0.18038E+03 -0.35326E+03  0.30856E+01 -0.25956E+02 -0.29944E+01      982.00
  0.77220E+00  0.53235E+03    0.38750E+00  0.38750E+00 -0.77500E+00  0.00000E+00  0.00000E+00  0.00000E+00    0.17288E+03  0.18073E+03 -0.35360E+03  0.29940E+01 -0.25597E+02 -0.31626E+01      982.00
  0.79711E+00  0.53261E+03    0.40000E+00  0.40000E+00 -0.80000E+00  0.00000E+00  0.00000E+00  0.00000E+00    0.17283E+03  0.18098E+03 -0.35381E+03  0.29038E+01 -0.25235E+02 -0.33519E+01      982.00
  0.82202E+00  0.53257E+03    0.41250E+00  0.41250E+00 -0.82500E+00  0.00000E+00  0.00000E+00  0.00000E+00    0.17271E+03  0.18110E+03 -0.35381E+03  0.28078E+01 -0.24837E+02 -0.35297E+01      982.00
  0.84694E+00  0.53251E+03    0.42500E+00  0.42500E+00 -0.85000E+00  0.00000E+00  0.00000E+00  0.00000E+00    0.17260E+03  0.18120E+03 -0.35381E+03  0.27141E+01 -0.24441E+02 -0.37676E+01      982.00
  0.87185E+00  0.53231E+03    0.43750E+00  0.43750E+00 -0.87500E+00  0.00000E+00  0.00000E+00  0.00000E+00    0.17247E+03  0.18123E+03 -0.35371E+03  0.26203E+01 -0.24020E+02 -0.40382E+01      982.00
  0.89677E+00  0.53198E+03    0.45000E+00  0.45000E+00 -0.90000E+00  0.00000E+00  0.00000E+00  0.00000E+00    0.17232E+03  0.18121E+03 -0.35352E+03  0.25279E+01 -0.23571E+02 -0.43428E+01      982.00
  0.92169E+00  0.53154E+03    0.46250E+00  0.46250E+00 -0.92500E+00  0.00000E+00  0.00000E+00  0.00000E+00    0.17214E+03  0.18113E+03 -0.35327E+03  0.24390E+01 -0.23089E+02 -0.46845E+01      982.00
  0.94661E+00  0.53088E+03    0.47500E+00  0.47500E+00 -0.95000E+00  0.00000E+00  0.00000E+00  0.00000E+00    0.17191E+03  0.18096E+03 -0.35287E+03  0.23492E+01 -0.22548E+02 -0.50228E+01      982.00
  0.97154E+00  0.53021E+03    0.48750E+00  0.48750E+00 -0.97500E+00  0.00000E+00  0.00000E+00  0.00000E+00    0.17167E+03  0.18078E+03 -0.35246E+03  0.22751E+01 -0.21975E+02 -0.54532E+01      982.00
  0.99647E+00  0.52950E+03    0.50000E+00  0.50000E+00 -0.10000E+01  0.00000E+00  0.00000E+00  0.00000E+00    0.17143E+03  0.18060E+03 -0.35202E+03  0.22143E+01 -0.21356E+02 -0.59215E+01      982.00
