          Evm          Svm            E11          E22          E33          E23          E13          E12         SDEV11       SDEV22       SDEV33       SDEV23       SDEV13       SDEV12      TEMP
  0.00000E+00  0.17184E+03    0.00000E+00  0.00000E+00  0.00000E+00  0.00000E+00  0.00000E+00  0.00000E+00    0.56757E+02  0.52637E+02 -0.10939E+03  0.12637E+02  0.13466E+02  0.22845E+02      982.00
  0.23873E-01  0.17189E+03    0.12500E-01  0.12500E-01 -0.25000E-01  0.00000E+00  0.00000E+00  0.00000E+00    0.56197E+02  0.52936E+02 -0.10913E+03  0.11788E+02  0.12711E+02  0.24770E+02      982.00
  0.47681E-01  0.17582E+03    0.25000E-01  0.25000E-01 -0.50000E-01  0.00000E+00  0.00000E+00  0.00000E+00    0.56535E+02  0.54426E+02 -0.11096E+03  0.11487E+02  0.12306E+02  0.28015E+02      982.00
  0.71349E-01  0.18402E+03    0.37500E-01  0.37500E-01 -0.75000E-01  0.00000E+00  0.00000E+00  0.00000E+00    0.57867E+02  0.57162E+02 -0.11503E+03  0.11509E+02  0.12095E+02  0.32941E+02      982.00
  0.94790E-01  0.19786E+03    0.50000E-01  0.50000E-01 -0.10000E+00  0.00000E+00  0.00000E+00  0.00000E+00    0.60480E+02  0.61423E+02 -0.12190E+03  0.11667E+02  0.11948E+02  0.40317E+02      982.00
  0.11789E+00  0.22103E+03    0.62500E-01  0.62500E-01 -0.12500E+00  0.00000E+00  0.00000E+00  0.00000E+00    0.65064E+02  0.68099E+02 -0.13316E+03  0.11905E+02  0.11876E+02  0.51971E+02      982.00
  0.14049E+00  0.26065E+03    0.75000E-01  0.75000E-01 -0.15000E+00  0.00000E+00  0.00000E+00  0.00000E+00    0.72527E+02  0.79150E+02 -0.15168E+03  0.12073E+02  0.11819E+02  0.71382E+02      982.00
  0.16231E+00  0.29898E+03    0.87500E-01  0.87500E-01 -0.17500E+00  0.00000E+00  0.00000E+00  0.00000E+00    0.78348E+02  0.90562E+02 -0.16891E+03  0.11664E+02  0.11302E+02  0.89986E+02      982.00
  0.18349E+00  0.30387E+03    0.10000E+00  0.10000E+00 -0.20000E+00  0.00000E+00  0.00000E+00  0.00000E+00    0.79210E+02  0.91924E+02 -0.17113E+03  0.11202E+02  0.10424E+02  0.92412E+02      982.00
  0.20461E+00  0.31991E+03    0.11250E+00  0.11250E+00 -0.22500E+00  0.00000E+00  0.00000E+00  0.00000E+00    0.83132E+02  0.95109E+02 -0.17824E+03  0.10464E+02  0.94505E+01  0.10026E+03      982.00
  0.22551E+00  0.34539E+03    0.12500E+00  0.12500E+00 -0.25000E+00  0.00000E+00  0.00000E+00  0.00000E+00    0.88683E+02  0.10083E+03 -0.18951E+03  0.97526E+01  0.86793E+01  0.11234E+03      982.00
  0.24608E+00  0.37064E+03    0.13750E+00  0.13750E+00 -0.27500E+00  0.00000E+00  0.00000E+00  0.00000E+00    0.94030E+02  0.10671E+03 -0.20074E+03  0.91007E+01  0.80300E+01  0.12402E+03      982.00
  0.26639E+00  0.39149E+03    0.15000E+00  0.15000E+00 -0.30000E+00  0.00000E+00  0.00000E+00  0.00000E+00    0.98456E+02  0.11170E+03 -0.21016E+03  0.85021E+01  0.74519E+01  0.13338E+03      982.00
  0.28652E+00  0.40746E+03    0.16250E+00  0.16250E+00 -0.32500E+00  0.00000E+00  0.00000E+00  0.00000E+00    0.10192E+03  0.11566E+03 -0.21758E+03  0.79441E+01  0.69198E+01  0.14028E+03      982.00
  0.30655E+00  0.41921E+03    0.17500E+00  0.17500E+00 -0.35000E+00  0.00000E+00  0.00000E+00  0.00000E+00    0.10458E+03  0.11869E+03 -0.22327E+03  0.74149E+01  0.64185E+01  0.14507E+03      982.00
  0.32652E+00  0.42763E+03    0.18750E+00  0.18750E+00 -0.37500E+00  0.00000E+00  0.00000E+00  0.00000E+00    0.10661E+03  0.12101E+03 -0.22762E+03  0.69107E+01  0.59422E+01  0.14820E+03      982.00
  0.34648E+00  0.43349E+03    0.20000E+00  0.20000E+00 -0.40000E+00  0.00000E+00  0.00000E+00  0.00000E+00    0.10817E+03  0.12275E+03 -0.23092E+03  0.64072E+01  0.54699E+01  0.15006E+03      982.00
  0.36646E+00  0.43724E+03    0.21250E+00  0.21250E+00 -0.42500E+00  0.00000E+00  0.00000E+00  0.00000E+00    0.10937E+03  0.12404E+03 -0.23341E+03  0.59309E+01  0.50240E+01  0.15083E+03      982.00
  0.38648E+00  0.43947E+03    0.22500E+00  0.22500E+00 -0.45000E+00  0.00000E+00  0.00000E+00  0.00000E+00    0.11031E+03  0.12502E+03 -0.23533E+03  0.54900E+01  0.46108E+01  0.15079E+03      982.00
  0.40656E+00  0.43972E+03    0.23750E+00  0.23750E+00 -0.47500E+00  0.00000E+00  0.00000E+00  0.00000E+00    0.11095E+03  0.12557E+03 -0.23652E+03  0.50627E+01  0.42151E+01  0.14966E+03      982.00
  0.42673E+00  0.43580E+03    0.25000E+00  0.25000E+00 -0.50000E+00  0.00000E+00  0.00000E+00  0.00000E+00    0.11069E+03  0.12504E+03 -0.23573E+03  0.47206E+01  0.39049E+01  0.14677E+03      982.00
  0.44701E+00  0.43173E+03    0.26250E+00  0.26250E+00 -0.52500E+00  0.00000E+00  0.00000E+00  0.00000E+00    0.11041E+03  0.12451E+03 -0.23492E+03  0.43863E+01  0.36037E+01  0.14373E+03      982.00
  0.46742E+00  0.42758E+03    0.27500E+00  0.27500E+00 -0.55000E+00  0.00000E+00  0.00000E+00  0.00000E+00    0.11013E+03  0.12397E+03 -0.23410E+03  0.40770E+01  0.33256E+01  0.14058E+03      982.00
  0.48795E+00  0.42319E+03    0.28750E+00  0.28750E+00 -0.57500E+00  0.00000E+00  0.00000E+00  0.00000E+00    0.10985E+03  0.12339E+03 -0.23324E+03  0.38181E+01  0.30937E+01  0.13721E+03      982.00
  0.50862E+00  0.41845E+03    0.30000E+00  0.30000E+00 -0.60000E+00  0.00000E+00  0.00000E+00  0.00000E+00    0.10954E+03  0.12276E+03 -0.23229E+03  0.36195E+01  0.29175E+01  0.13353E+03      982.00
  0.52943E+00  0.41385E+03    0.31250E+00  0.31250E+00 -0.62500E+00  0.00000E+00  0.00000E+00  0.00000E+00    0.10926E+03  0.12215E+03 -0.23141E+03  0.34417E+01  0.27602E+01  0.12987E+03      982.00
  0.55040E+00  0.40930E+03    0.32500E+00  0.32500E+00 -0.65000E+00  0.00000E+00  0.00000E+00  0.00000E+00    0.10900E+03  0.12157E+03 -0.23056E+03  0.32898E+01  0.26267E+01  0.12616E+03      982.00
  0.57153E+00  0.40464E+03    0.33750E+00  0.33750E+00 -0.67500E+00  0.00000E+00  0.00000E+00  0.00000E+00    0.10874E+03  0.12096E+03 -0.22971E+03  0.31957E+01  0.25463E+01  0.12227E+03      982.00
  0.59281E+00  0.40004E+03    0.35000E+00  0.35000E+00 -0.70000E+00  0.00000E+00  0.00000E+00  0.00000E+00    0.10851E+03  0.12038E+03 -0.22889E+03  0.31424E+01  0.25037E+01  0.11832E+03      982.00
  0.61427E+00  0.39530E+03    0.36250E+00  0.36250E+00 -0.72500E+00  0.00000E+00  0.00000E+00  0.00000E+00    0.10829E+03  0.11976E+03 -0.22805E+03  0.31595E+01  0.25257E+01  0.11417E+03      982.00
  0.63590E+00  0.39106E+03    0.37500E+00  0.37500E+00 -0.75000E+00  0.00000E+00  0.00000E+00  0.00000E+00    0.10813E+03  0.11925E+03 -0.22738E+03  0.31657E+01  0.25380E+01  0.11024E+03      982.00
  0.65771E+00  0.38688E+03    0.38750E+00  0.38750E+00 -0.77500E+00  0.00000E+00  0.00000E+00  0.00000E+00    0.10801E+03  0.11874E+03 -0.22675E+03  0.32275E+01  0.26014E+01  0.10622E+03      982.00
  0.67969E+00  0.38291E+03    0.40000E+00  0.40000E+00 -0.80000E+00  0.00000E+00  0.00000E+00  0.00000E+00    0.10793E+03  0.11828E+03 -0.22621E+03  0.33225E+01  0.26955E+01  0.10223E+03      982.00
  0.70184E+00  0.37904E+03    0.41250E+00  0.41250E+00 -0.82500E+00  0.00000E+00  0.00000E+00  0.00000E+00    0.10788E+03  0.11783E+03 -0.22571E+03  0.34798E+01  0.28463E+01  0.98171E+02      982.00
  0.72417E+00  0.37562E+03    0.42500E+00  0.42500E+00 -0.85000E+00  0.00000E+00  0.00000E+00  0.00000E+00    0.10790E+03  0.11747E+03 -0.22537E+03  0.36276E+01  0.29893E+01  0.94293E+02      982.00
  0.74667E+00  0.37249E+03    0.43750E+00  0.43750E+00 -0.87500E+00  0.00000E+00  0.00000E+00  0.00000E+00    0.10797E+03  0.11717E+03 -0.22514E+03  0.37971E+01  0.31523E+01  0.90495E+02      982.00
  0.76934E+00  0.36967E+03    0.45000E+00  0.45000E+00 -0.90000E+00  0.00000E+00  0.00000E+00  0.00000E+00    0.10809E+03  0.11692E+03 -0.22501E+03  0.39842E+01  0.33315E+01  0.86790E+02      982.00
  0.79216E+00  0.36717E+03    0.46250E+00  0.46250E+00 -0.92500E+00  0.00000E+00  0.00000E+00  0.00000E+00    0.10827E+03  0.11674E+03 -0.22500E+03  0.41843E+01  0.35228E+01  0.83189E+02      982.00
  0.81514E+00  0.36499E+03    0.47500E+00  0.47500E+00 -0.95000E+00  0.00000E+00  0.00000E+00  0.00000E+00    0.10849E+03  0.11661E+03 -0.22511E+03  0.43932E+01  0.37222E+01  0.79700E+02      982.00
  0.83827E+00  0.36320E+03    0.48750E+00  0.48750E+00 -0.97500E+00  0.00000E+00  0.00000E+00  0.00000E+00    0.10879E+03  0.11657E+03 -0.22536E+03  0.45950E+01  0.39156E+01  0.76360E+02      982.00
  0.86154E+00  0.36148E+03    0.50000E+00  0.50000E+00 -0.10000E+01  0.00000E+00  0.00000E+00  0.00000E+00    0.10908E+03  0.11651E+03 -0.22560E+03  0.48408E+01  0.41484E+01  0.73020E+02      982.00
