          Evm          Svm            E11          E22          E33          E23          E13          E12         SDEV11       SDEV22       SDEV33       SDEV23       SDEV13       SDEV12      TEMP
  0.00000E+00  0.14474E+03    0.00000E+00  0.00000E+00  0.00000E+00  0.00000E+00  0.00000E+00  0.00000E+00    0.45834E+02  0.45826E+02 -0.91660E+02 -0.14830E+01  0.14908E+01  0.26037E+02      982.00
  0.23747E-01  0.14635E+03    0.12500E-01  0.12500E-01 -0.25000E-01  0.00000E+00  0.00000E+00  0.00000E+00    0.46000E+02  0.46004E+02 -0.92004E+02 -0.13399E+01  0.13367E+01  0.28066E+02      982.00
  0.47321E-01  0.15130E+03    0.25000E-01  0.25000E-01 -0.50000E-01  0.00000E+00  0.00000E+00  0.00000E+00    0.46947E+02  0.46954E+02 -0.93901E+02 -0.12349E+01  0.12299E+01  0.31853E+02      982.00
  0.70595E-01  0.16086E+03    0.37500E-01  0.37500E-01 -0.75000E-01  0.00000E+00  0.00000E+00  0.00000E+00    0.48901E+02  0.48912E+02 -0.97813E+02 -0.11706E+01  0.11632E+01  0.38045E+02      982.00
  0.93396E-01  0.17678E+03    0.50000E-01  0.50000E-01 -0.10000E+00  0.00000E+00  0.00000E+00  0.00000E+00    0.52139E+02  0.52160E+02 -0.10430E+03 -0.11392E+01  0.11269E+01  0.47493E+02      982.00
  0.11552E+00  0.20145E+03    0.62500E-01  0.62500E-01 -0.12500E+00  0.00000E+00  0.00000E+00  0.00000E+00    0.57012E+02  0.57060E+02 -0.11407E+03 -0.11335E+01  0.11102E+01  0.61362E+02      982.00
  0.13676E+00  0.23759E+03    0.75000E-01  0.75000E-01 -0.15000E+00  0.00000E+00  0.00000E+00  0.00000E+00    0.63875E+02  0.64006E+02 -0.12788E+03 -0.11472E+01  0.10970E+01  0.80920E+02      982.00
  0.15694E+00  0.28613E+03    0.87500E-01  0.87500E-01 -0.17500E+00  0.00000E+00  0.00000E+00  0.00000E+00    0.72715E+02  0.73110E+02 -0.14582E+03 -0.11780E+01  0.10600E+01  0.10648E+03      982.00
  0.17605E+00  0.34121E+03    0.10000E+00  0.10000E+00 -0.20000E+00  0.00000E+00  0.00000E+00  0.00000E+00    0.82318E+02  0.83400E+02 -0.16572E+03 -0.12289E+01  0.96600E+00  0.13494E+03      982.00
  0.19427E+00  0.39175E+03    0.11250E+00  0.11250E+00 -0.22500E+00  0.00000E+00  0.00000E+00  0.00000E+00    0.90725E+02  0.93040E+02 -0.18376E+03 -0.12957E+01  0.80886E+00  0.16070E+03      982.00
  0.21186E+00  0.43161E+03    0.12500E+00  0.12500E+00 -0.25000E+00  0.00000E+00  0.00000E+00  0.00000E+00    0.97064E+02  0.10092E+03 -0.19799E+03 -0.13624E+01  0.62101E+00  0.18080E+03      982.00
  0.22906E+00  0.46155E+03    0.13750E+00  0.13750E+00 -0.27500E+00  0.00000E+00  0.00000E+00  0.00000E+00    0.10169E+03  0.10704E+03 -0.20874E+03 -0.14148E+01  0.43360E+00  0.19576E+03      982.00
  0.24602E+00  0.48436E+03    0.15000E+00  0.15000E+00 -0.30000E+00  0.00000E+00  0.00000E+00  0.00000E+00    0.10514E+03  0.11183E+03 -0.21697E+03 -0.14506E+01  0.25324E+00  0.20708E+03      982.00
  0.26282E+00  0.50184E+03    0.16250E+00  0.16250E+00 -0.32500E+00  0.00000E+00  0.00000E+00  0.00000E+00    0.10774E+03  0.11558E+03 -0.22332E+03 -0.14697E+01  0.87347E-01  0.21570E+03      982.00
  0.27950E+00  0.51564E+03    0.17500E+00  0.17500E+00 -0.35000E+00  0.00000E+00  0.00000E+00  0.00000E+00    0.10977E+03  0.11861E+03 -0.22838E+03 -0.14749E+01 -0.66926E-01  0.22246E+03      982.00
  0.29611E+00  0.52622E+03    0.18750E+00  0.18750E+00 -0.37500E+00  0.00000E+00  0.00000E+00  0.00000E+00    0.11140E+03  0.12090E+03 -0.23229E+03 -0.14653E+01 -0.20194E+00  0.22761E+03      982.00
  0.31267E+00  0.53492E+03    0.20000E+00  0.20000E+00 -0.40000E+00  0.00000E+00  0.00000E+00  0.00000E+00    0.11274E+03  0.12280E+03 -0.23554E+03 -0.14477E+01 -0.32739E+00  0.23182E+03      982.00
  0.32918E+00  0.54204E+03    0.21250E+00  0.21250E+00 -0.42500E+00  0.00000E+00  0.00000E+00  0.00000E+00    0.11384E+03  0.12436E+03 -0.23820E+03 -0.14225E+01 -0.44409E+00  0.23527E+03      982.00
  0.34566E+00  0.54863E+03    0.22500E+00  0.22500E+00 -0.45000E+00  0.00000E+00  0.00000E+00  0.00000E+00    0.11477E+03  0.12585E+03 -0.24062E+03 -0.13874E+01 -0.57176E+00  0.23848E+03      982.00
  0.36211E+00  0.55341E+03    0.23750E+00  0.23750E+00 -0.47500E+00  0.00000E+00  0.00000E+00  0.00000E+00    0.11553E+03  0.12692E+03 -0.24245E+03 -0.13533E+01 -0.66727E+00  0.24076E+03      982.00
  0.37853E+00  0.55750E+03    0.25000E+00  0.25000E+00 -0.50000E+00  0.00000E+00  0.00000E+00  0.00000E+00    0.11621E+03  0.12781E+03 -0.24402E+03 -0.13155E+01 -0.75751E+00  0.24271E+03      982.00
  0.39495E+00  0.56120E+03    0.26250E+00  0.26250E+00 -0.52500E+00  0.00000E+00  0.00000E+00  0.00000E+00    0.11681E+03  0.12859E+03 -0.24540E+03 -0.12764E+01 -0.84400E+00  0.24449E+03      982.00
  0.41135E+00  0.56420E+03    0.27500E+00  0.27500E+00 -0.55000E+00  0.00000E+00  0.00000E+00  0.00000E+00    0.11734E+03  0.12923E+03 -0.24657E+03 -0.12354E+01 -0.92171E+00  0.24591E+03      982.00
  0.42773E+00  0.56684E+03    0.28750E+00  0.28750E+00 -0.57500E+00  0.00000E+00  0.00000E+00  0.00000E+00    0.11782E+03  0.12978E+03 -0.24760E+03 -0.11935E+01 -0.99462E+00  0.24716E+03      982.00
  0.44411E+00  0.56650E+03    0.30000E+00  0.30000E+00 -0.60000E+00  0.00000E+00  0.00000E+00  0.00000E+00    0.11795E+03  0.12957E+03 -0.24752E+03 -0.11100E+01 -0.10498E+01  0.24696E+03      982.00
  0.46050E+00  0.56668E+03    0.31250E+00  0.31250E+00 -0.62500E+00  0.00000E+00  0.00000E+00  0.00000E+00    0.11796E+03  0.12961E+03 -0.24757E+03 -0.11518E+01 -0.10146E+01  0.24706E+03      982.00
  0.47688E+00  0.56678E+03    0.32500E+00  0.32500E+00 -0.65000E+00  0.00000E+00  0.00000E+00  0.00000E+00    0.11826E+03  0.12935E+03 -0.24761E+03 -0.93151E+00 -0.12085E+01  0.24711E+03      982.00
  0.49327E+00  0.56684E+03    0.33750E+00  0.33750E+00 -0.67500E+00  0.00000E+00  0.00000E+00  0.00000E+00    0.11824E+03  0.12940E+03 -0.24764E+03 -0.99556E+00 -0.11509E+01  0.24714E+03      982.00
  0.50965E+00  0.56683E+03    0.35000E+00  0.35000E+00 -0.70000E+00  0.00000E+00  0.00000E+00  0.00000E+00    0.11841E+03  0.12923E+03 -0.24764E+03 -0.97136E+00 -0.11714E+01  0.24713E+03      982.00
  0.52603E+00  0.56692E+03    0.36250E+00  0.36250E+00 -0.72500E+00  0.00000E+00  0.00000E+00  0.00000E+00    0.11838E+03  0.12930E+03 -0.24767E+03 -0.97303E+00 -0.11775E+01  0.24717E+03      982.00
  0.54241E+00  0.56683E+03    0.37500E+00  0.37500E+00 -0.75000E+00  0.00000E+00  0.00000E+00  0.00000E+00    0.11852E+03  0.12913E+03 -0.24764E+03 -0.89324E+00 -0.12390E+01  0.24713E+03      982.00
  0.55880E+00  0.56693E+03    0.38750E+00  0.38750E+00 -0.77500E+00  0.00000E+00  0.00000E+00  0.00000E+00    0.11848E+03  0.12920E+03 -0.24768E+03 -0.89606E+00 -0.12428E+01  0.24717E+03      982.00
  0.57518E+00  0.56683E+03    0.40000E+00  0.40000E+00 -0.80000E+00  0.00000E+00  0.00000E+00  0.00000E+00    0.11863E+03  0.12902E+03 -0.24765E+03 -0.82680E+00 -0.12965E+01  0.24713E+03      982.00
  0.59156E+00  0.56694E+03    0.41250E+00  0.41250E+00 -0.82500E+00  0.00000E+00  0.00000E+00  0.00000E+00    0.11860E+03  0.12910E+03 -0.24770E+03 -0.83010E+00 -0.12987E+01  0.24718E+03      982.00
  0.60795E+00  0.56693E+03    0.42500E+00  0.42500E+00 -0.85000E+00  0.00000E+00  0.00000E+00  0.00000E+00    0.11870E+03  0.12900E+03 -0.24770E+03 -0.73893E+00 -0.13807E+01  0.24717E+03      982.00
  0.62433E+00  0.56687E+03    0.43750E+00  0.43750E+00 -0.87500E+00  0.00000E+00  0.00000E+00  0.00000E+00    0.11881E+03  0.12886E+03 -0.24767E+03 -0.75268E+00 -0.13617E+01  0.24714E+03      982.00
  0.64072E+00  0.56699E+03    0.45000E+00  0.45000E+00 -0.90000E+00  0.00000E+00  0.00000E+00  0.00000E+00    0.11878E+03  0.12894E+03 -0.24772E+03 -0.74736E+00 -0.13695E+01  0.24720E+03      982.00
  0.65710E+00  0.56699E+03    0.46250E+00  0.46250E+00 -0.92500E+00  0.00000E+00  0.00000E+00  0.00000E+00    0.11889E+03  0.12884E+03 -0.24773E+03 -0.66889E+00 -0.14370E+01  0.24719E+03      982.00
  0.67349E+00  0.56688E+03    0.47500E+00  0.47500E+00 -0.95000E+00  0.00000E+00  0.00000E+00  0.00000E+00    0.11902E+03  0.12866E+03 -0.24768E+03 -0.67335E+00 -0.14242E+01  0.24715E+03      982.00
  0.68987E+00  0.56702E+03    0.48750E+00  0.48750E+00 -0.97500E+00  0.00000E+00  0.00000E+00  0.00000E+00    0.11899E+03  0.12875E+03 -0.24774E+03 -0.67877E+00 -0.14226E+01  0.24721E+03      982.00
  0.70625E+00  0.56706E+03    0.50000E+00  0.50000E+00 -0.10000E+01  0.00000E+00  0.00000E+00  0.00000E+00    0.11911E+03  0.12866E+03 -0.24777E+03 -0.61506E+00 -0.14762E+01  0.24722E+03      982.00
