          Evm          Svm            E11          E22          E33          E23          E13          E12         SDEV11       SDEV22       SDEV33       SDEV23       SDEV13       SDEV12      TEMP
  0.00000E+00  0.16651E+03    0.00000E+00  0.00000E+00  0.00000E+00  0.00000E+00  0.00000E+00  0.00000E+00    0.47722E+02  0.55300E+02 -0.10302E+03 -0.10135E+02 -0.98292E+01  0.32682E+02      982.00
  0.23202E-01  0.16855E+03    0.12500E-01  0.12500E-01 -0.25000E-01  0.00000E+00  0.00000E+00  0.00000E+00    0.48540E+02  0.55130E+02 -0.10367E+03 -0.81085E+01 -0.81492E+01  0.35583E+02      982.00
  0.46267E-01  0.16559E+03    0.25000E-01  0.25000E-01 -0.50000E-01  0.00000E+00  0.00000E+00  0.00000E+00    0.49300E+02  0.52559E+02 -0.10186E+03 -0.62896E+01 -0.62285E+01  0.35748E+02      982.00
  0.69334E-01  0.16961E+03    0.37500E-01  0.37500E-01 -0.75000E-01  0.00000E+00  0.00000E+00  0.00000E+00    0.51221E+02  0.51996E+02 -0.10322E+03 -0.54910E+01 -0.53400E+01  0.39249E+02      982.00
  0.92154E-01  0.18280E+03    0.50000E-01  0.50000E-01 -0.10000E+00  0.00000E+00  0.00000E+00  0.00000E+00    0.54765E+02  0.53863E+02 -0.10863E+03 -0.53824E+01 -0.52355E+01  0.47245E+02      982.00
  0.11444E+00  0.20597E+03    0.62500E-01  0.62500E-01 -0.12500E+00  0.00000E+00  0.00000E+00  0.00000E+00    0.60175E+02  0.57933E+02 -0.11811E+03 -0.57411E+01 -0.56700E+01  0.60105E+02      982.00
  0.13594E+00  0.24096E+03    0.75000E-01  0.75000E-01 -0.15000E+00  0.00000E+00  0.00000E+00  0.00000E+00    0.67789E+02  0.64251E+02 -0.13204E+03 -0.64754E+01 -0.65303E+01  0.78676E+02      982.00
  0.15649E+00  0.28800E+03    0.87500E-01  0.87500E-01 -0.17500E+00  0.00000E+00  0.00000E+00  0.00000E+00    0.77553E+02  0.72672E+02 -0.15023E+03 -0.74801E+01 -0.77075E+01  0.10296E+03      982.00
  0.17605E+00  0.34089E+03    0.10000E+00  0.10000E+00 -0.20000E+00  0.00000E+00  0.00000E+00  0.00000E+00    0.88175E+02  0.82062E+02 -0.17024E+03 -0.85019E+01 -0.89645E+01  0.12976E+03      982.00
  0.19478E+00  0.38912E+03    0.11250E+00  0.11250E+00 -0.22500E+00  0.00000E+00  0.00000E+00  0.00000E+00    0.97604E+02  0.90687E+02 -0.18829E+03 -0.92754E+01 -0.10033E+02  0.15389E+03      982.00
  0.21292E+00  0.42748E+03    0.12500E+00  0.12500E+00 -0.25000E+00  0.00000E+00  0.00000E+00  0.00000E+00    0.10491E+03  0.97707E+02 -0.20261E+03 -0.97619E+01 -0.10838E+02  0.17291E+03      982.00
  0.23070E+00  0.45682E+03    0.13750E+00  0.13750E+00 -0.27500E+00  0.00000E+00  0.00000E+00  0.00000E+00    0.11033E+03  0.10323E+03 -0.21356E+03 -0.10034E+02 -0.11417E+02  0.18738E+03      982.00
  0.24823E+00  0.47875E+03    0.15000E+00  0.15000E+00 -0.30000E+00  0.00000E+00  0.00000E+00  0.00000E+00    0.11427E+03  0.10745E+03 -0.22173E+03 -0.10178E+02 -0.11833E+02  0.19818E+03      982.00
  0.26560E+00  0.49575E+03    0.16250E+00  0.16250E+00 -0.32500E+00  0.00000E+00  0.00000E+00  0.00000E+00    0.11724E+03  0.11077E+03 -0.22801E+03 -0.10236E+02 -0.12125E+02  0.20656E+03      982.00
  0.28284E+00  0.50940E+03    0.17500E+00  0.17500E+00 -0.35000E+00  0.00000E+00  0.00000E+00  0.00000E+00    0.11957E+03  0.11344E+03 -0.23300E+03 -0.10231E+02 -0.12321E+02  0.21334E+03      982.00
  0.30000E+00  0.52025E+03    0.18750E+00  0.18750E+00 -0.37500E+00  0.00000E+00  0.00000E+00  0.00000E+00    0.12135E+03  0.11554E+03 -0.23689E+03 -0.10178E+02 -0.12436E+02  0.21878E+03      982.00
  0.31707E+00  0.52849E+03    0.20000E+00  0.20000E+00 -0.40000E+00  0.00000E+00  0.00000E+00  0.00000E+00    0.12271E+03  0.11708E+03 -0.23979E+03 -0.10108E+02 -0.12490E+02  0.22296E+03      982.00
  0.33409E+00  0.53583E+03    0.21250E+00  0.21250E+00 -0.42500E+00  0.00000E+00  0.00000E+00  0.00000E+00    0.12385E+03  0.11845E+03 -0.24230E+03 -0.99949E+01 -0.12489E+02  0.22674E+03      982.00
  0.35104E+00  0.54215E+03    0.22500E+00  0.22500E+00 -0.45000E+00  0.00000E+00  0.00000E+00  0.00000E+00    0.12480E+03  0.11958E+03 -0.24439E+03 -0.98493E+01 -0.12438E+02  0.23005E+03      982.00
  0.36795E+00  0.54738E+03    0.23750E+00  0.23750E+00 -0.47500E+00  0.00000E+00  0.00000E+00  0.00000E+00    0.12555E+03  0.12051E+03 -0.24606E+03 -0.96799E+01 -0.12343E+02  0.23284E+03      982.00
  0.38481E+00  0.55273E+03    0.25000E+00  0.25000E+00 -0.50000E+00  0.00000E+00  0.00000E+00  0.00000E+00    0.12622E+03  0.12148E+03 -0.24771E+03 -0.94687E+01 -0.12221E+02  0.23574E+03      982.00
  0.40161E+00  0.55638E+03    0.26250E+00  0.26250E+00 -0.52500E+00  0.00000E+00  0.00000E+00  0.00000E+00    0.12669E+03  0.12209E+03 -0.24877E+03 -0.92801E+01 -0.12065E+02  0.23777E+03      982.00
  0.41838E+00  0.55983E+03    0.27500E+00  0.27500E+00 -0.55000E+00  0.00000E+00  0.00000E+00  0.00000E+00    0.12713E+03  0.12262E+03 -0.24975E+03 -0.90712E+01 -0.11889E+02  0.23970E+03      982.00
  0.43511E+00  0.56289E+03    0.28750E+00  0.28750E+00 -0.57500E+00  0.00000E+00  0.00000E+00  0.00000E+00    0.12753E+03  0.12307E+03 -0.25059E+03 -0.88526E+01 -0.11691E+02  0.24145E+03      982.00
  0.45180E+00  0.56374E+03    0.30000E+00  0.30000E+00 -0.60000E+00  0.00000E+00  0.00000E+00  0.00000E+00    0.12765E+03  0.12290E+03 -0.25056E+03 -0.85752E+01 -0.11380E+02  0.24216E+03      982.00
  0.46847E+00  0.56425E+03    0.31250E+00  0.31250E+00 -0.62500E+00  0.00000E+00  0.00000E+00  0.00000E+00    0.12764E+03  0.12278E+03 -0.25042E+03 -0.83242E+01 -0.11095E+02  0.24268E+03      982.00
  0.48511E+00  0.56467E+03    0.32500E+00  0.32500E+00 -0.65000E+00  0.00000E+00  0.00000E+00  0.00000E+00    0.12763E+03  0.12265E+03 -0.25027E+03 -0.80787E+01 -0.10812E+02  0.24314E+03      982.00
  0.50173E+00  0.56522E+03    0.33750E+00  0.33750E+00 -0.67500E+00  0.00000E+00  0.00000E+00  0.00000E+00    0.12768E+03  0.12251E+03 -0.25019E+03 -0.77528E+01 -0.10436E+02  0.24366E+03      982.00
  0.51833E+00  0.56558E+03    0.35000E+00  0.35000E+00 -0.70000E+00  0.00000E+00  0.00000E+00  0.00000E+00    0.12769E+03  0.12238E+03 -0.25006E+03 -0.75240E+01 -0.10168E+02  0.24405E+03      982.00
  0.53491E+00  0.56592E+03    0.36250E+00  0.36250E+00 -0.72500E+00  0.00000E+00  0.00000E+00  0.00000E+00    0.12772E+03  0.12223E+03 -0.24995E+03 -0.73154E+01 -0.99193E+01  0.24442E+03      982.00
  0.55148E+00  0.56621E+03    0.37500E+00  0.37500E+00 -0.75000E+00  0.00000E+00  0.00000E+00  0.00000E+00    0.12775E+03  0.12208E+03 -0.24984E+03 -0.71005E+01 -0.96634E+01  0.24474E+03      982.00
  0.56802E+00  0.56646E+03    0.38750E+00  0.38750E+00 -0.77500E+00  0.00000E+00  0.00000E+00  0.00000E+00    0.12779E+03  0.12195E+03 -0.24973E+03 -0.68914E+01 -0.94135E+01  0.24503E+03      982.00
  0.58455E+00  0.56670E+03    0.40000E+00  0.40000E+00 -0.80000E+00  0.00000E+00  0.00000E+00  0.00000E+00    0.12782E+03  0.12181E+03 -0.24963E+03 -0.66884E+01 -0.91702E+01  0.24530E+03      982.00
  0.60107E+00  0.56688E+03    0.41250E+00  0.41250E+00 -0.82500E+00  0.00000E+00  0.00000E+00  0.00000E+00    0.12787E+03  0.12169E+03 -0.24956E+03 -0.65128E+01 -0.89631E+01  0.24551E+03      982.00
  0.61758E+00  0.56707E+03    0.42500E+00  0.42500E+00 -0.85000E+00  0.00000E+00  0.00000E+00  0.00000E+00    0.12791E+03  0.12157E+03 -0.24948E+03 -0.63219E+01 -0.87327E+01  0.24573E+03      982.00
  0.63408E+00  0.56725E+03    0.43750E+00  0.43750E+00 -0.87500E+00  0.00000E+00  0.00000E+00  0.00000E+00    0.12796E+03  0.12144E+03 -0.24940E+03 -0.61357E+01 -0.85078E+01  0.24594E+03      982.00
  0.65057E+00  0.56741E+03    0.45000E+00  0.45000E+00 -0.90000E+00  0.00000E+00  0.00000E+00  0.00000E+00    0.12802E+03  0.12131E+03 -0.24933E+03 -0.59550E+01 -0.82892E+01  0.24613E+03      982.00
  0.66705E+00  0.56756E+03    0.46250E+00  0.46250E+00 -0.92500E+00  0.00000E+00  0.00000E+00  0.00000E+00    0.12808E+03  0.12119E+03 -0.24927E+03 -0.57794E+01 -0.80767E+01  0.24630E+03      982.00
  0.68352E+00  0.56769E+03    0.47500E+00  0.47500E+00 -0.95000E+00  0.00000E+00  0.00000E+00  0.00000E+00    0.12814E+03  0.12107E+03 -0.24921E+03 -0.56088E+01 -0.78701E+01  0.24646E+03      982.00
  0.69998E+00  0.56782E+03    0.48750E+00  0.48750E+00 -0.97500E+00  0.00000E+00  0.00000E+00  0.00000E+00    0.12821E+03  0.12095E+03 -0.24915E+03 -0.54429E+01 -0.76693E+01  0.24660E+03      982.00
  0.71643E+00  0.56793E+03    0.50000E+00  0.50000E+00 -0.10000E+01  0.00000E+00  0.00000E+00  0.00000E+00    0.12827E+03  0.12083E+03 -0.24911E+03 -0.52816E+01 -0.74741E+01  0.24673E+03      982.00
