          Evm          Svm            E11          E22          E33          E23          E13          E12         SDEV11       SDEV22       SDEV33       SDEV23       SDEV13       SDEV12      TEMP
  0.00000E+00  0.14994E+03    0.00000E+00  0.00000E+00  0.00000E+00  0.00000E+00  0.00000E+00  0.00000E+00    0.44393E+02  0.49418E+02 -0.93811E+02 -0.11746E+01 -0.50260E+00  0.29751E+02      982.00
  0.23463E-01  0.15171E+03    0.12500E-01  0.12500E-01 -0.25000E-01  0.00000E+00  0.00000E+00  0.00000E+00    0.44460E+02  0.49961E+02 -0.94421E+02 -0.16205E+01 -0.43296E+00  0.31225E+02      982.00
  0.46802E-01  0.15436E+03    0.25000E-01  0.25000E-01 -0.50000E-01  0.00000E+00  0.00000E+00  0.00000E+00    0.44518E+02  0.50953E+02 -0.95470E+02 -0.20168E+01 -0.46315E+00  0.33041E+02      982.00
  0.69996E-01  0.15988E+03    0.37500E-01  0.37500E-01 -0.75000E-01  0.00000E+00  0.00000E+00  0.00000E+00    0.44935E+02  0.52796E+02 -0.97731E+02 -0.22581E+01 -0.75772E+00  0.36547E+02      982.00
  0.92919E-01  0.16935E+03    0.50000E-01  0.50000E-01 -0.10000E+00  0.00000E+00  0.00000E+00  0.00000E+00    0.45921E+02  0.55698E+02 -0.10162E+03 -0.23969E+01 -0.12144E+01  0.42239E+02      982.00
  0.11542E+00  0.18376E+03    0.62500E-01  0.62500E-01 -0.12500E+00  0.00000E+00  0.00000E+00  0.00000E+00    0.47656E+02  0.59814E+02 -0.10747E+03 -0.26028E+01 -0.17009E+01  0.50461E+02      982.00
  0.13735E+00  0.20502E+03    0.75000E-01  0.75000E-01 -0.15000E+00  0.00000E+00  0.00000E+00  0.00000E+00    0.50320E+02  0.65584E+02 -0.11590E+03 -0.29034E+01 -0.22332E+01  0.62156E+02      982.00
  0.15855E+00  0.23520E+03    0.87500E-01  0.87500E-01 -0.17500E+00  0.00000E+00  0.00000E+00  0.00000E+00    0.54111E+02  0.73440E+02 -0.12755E+03 -0.33385E+01 -0.28209E+01  0.78263E+02      982.00
  0.17889E+00  0.27583E+03    0.10000E+00  0.10000E+00 -0.20000E+00  0.00000E+00  0.00000E+00  0.00000E+00    0.59159E+02  0.83652E+02 -0.14281E+03 -0.39371E+01 -0.34637E+01  0.99434E+02      982.00
  0.19831E+00  0.32455E+03    0.11250E+00  0.11250E+00 -0.22500E+00  0.00000E+00  0.00000E+00  0.00000E+00    0.65176E+02  0.95549E+02 -0.16073E+03 -0.46507E+01 -0.41078E+01  0.12437E+03      982.00
  0.21688E+00  0.37423E+03    0.12500E+00  0.12500E+00 -0.25000E+00  0.00000E+00  0.00000E+00  0.00000E+00    0.71358E+02  0.10738E+03 -0.17873E+03 -0.53499E+01 -0.46692E+01  0.14949E+03      982.00
  0.23479E+00  0.41592E+03    0.13750E+00  0.13750E+00 -0.27500E+00  0.00000E+00  0.00000E+00  0.00000E+00    0.76714E+02  0.11719E+03 -0.19390E+03 -0.60324E+01 -0.49588E+01  0.17028E+03      982.00
  0.25227E+00  0.44909E+03    0.15000E+00  0.15000E+00 -0.30000E+00  0.00000E+00  0.00000E+00  0.00000E+00    0.81156E+02  0.12479E+03 -0.20594E+03 -0.65421E+01 -0.51188E+01  0.18674E+03      982.00
  0.26947E+00  0.47436E+03    0.16250E+00  0.16250E+00 -0.32500E+00  0.00000E+00  0.00000E+00  0.00000E+00    0.84683E+02  0.13048E+03 -0.21516E+03 -0.69436E+01 -0.51474E+01  0.19921E+03      982.00
  0.28648E+00  0.49426E+03    0.17500E+00  0.17500E+00 -0.35000E+00  0.00000E+00  0.00000E+00  0.00000E+00    0.87552E+02  0.13486E+03 -0.22241E+03 -0.72192E+01 -0.51249E+01  0.20902E+03      982.00
  0.30335E+00  0.50852E+03    0.18750E+00  0.18750E+00 -0.37500E+00  0.00000E+00  0.00000E+00  0.00000E+00    0.89676E+02  0.13805E+03 -0.22772E+03 -0.74764E+01 -0.49916E+01  0.21596E+03      982.00
  0.32014E+00  0.52072E+03    0.20000E+00  0.20000E+00 -0.40000E+00  0.00000E+00  0.00000E+00  0.00000E+00    0.91523E+02  0.14069E+03 -0.23221E+03 -0.76283E+01 -0.48701E+01  0.22194E+03      982.00
  0.33687E+00  0.52993E+03    0.21250E+00  0.21250E+00 -0.42500E+00  0.00000E+00  0.00000E+00  0.00000E+00    0.92945E+02  0.14268E+03 -0.23563E+03 -0.77312E+01 -0.47308E+01  0.22642E+03      982.00
  0.35354E+00  0.53767E+03    0.22500E+00  0.22500E+00 -0.45000E+00  0.00000E+00  0.00000E+00  0.00000E+00    0.94111E+02  0.14437E+03 -0.23848E+03 -0.77751E+01 -0.45918E+01  0.23021E+03      982.00
  0.37017E+00  0.54406E+03    0.23750E+00  0.23750E+00 -0.47500E+00  0.00000E+00  0.00000E+00  0.00000E+00    0.95056E+02  0.14578E+03 -0.24084E+03 -0.77758E+01 -0.44580E+01  0.23333E+03      982.00
  0.38677E+00  0.54938E+03    0.25000E+00  0.25000E+00 -0.50000E+00  0.00000E+00  0.00000E+00  0.00000E+00    0.95805E+02  0.14696E+03 -0.24276E+03 -0.77090E+01 -0.43570E+01  0.23596E+03      982.00
  0.40334E+00  0.55373E+03    0.26250E+00  0.26250E+00 -0.52500E+00  0.00000E+00  0.00000E+00  0.00000E+00    0.96404E+02  0.14796E+03 -0.24436E+03 -0.76567E+01 -0.42256E+01  0.23807E+03      982.00
  0.41989E+00  0.55745E+03    0.27500E+00  0.27500E+00 -0.55000E+00  0.00000E+00  0.00000E+00  0.00000E+00    0.96867E+02  0.14887E+03 -0.24573E+03 -0.75779E+01 -0.41004E+01  0.23989E+03      982.00
  0.43642E+00  0.55706E+03    0.28750E+00  0.28750E+00 -0.57500E+00  0.00000E+00  0.00000E+00  0.00000E+00    0.96364E+02  0.14919E+03 -0.24556E+03 -0.73547E+01 -0.39825E+01  0.23968E+03      982.00
  0.45295E+00  0.55716E+03    0.30000E+00  0.30000E+00 -0.60000E+00  0.00000E+00  0.00000E+00  0.00000E+00    0.96237E+02  0.14930E+03 -0.24554E+03 -0.71630E+01 -0.39045E+01  0.23977E+03      982.00
  0.46948E+00  0.55715E+03    0.31250E+00  0.31250E+00 -0.62500E+00  0.00000E+00  0.00000E+00  0.00000E+00    0.96044E+02  0.14943E+03 -0.24547E+03 -0.69537E+01 -0.38242E+01  0.23980E+03      982.00
  0.48600E+00  0.55712E+03    0.32500E+00  0.32500E+00 -0.65000E+00  0.00000E+00  0.00000E+00  0.00000E+00    0.95865E+02  0.14954E+03 -0.24541E+03 -0.67494E+01 -0.37472E+01  0.23982E+03      982.00
  0.50252E+00  0.55710E+03    0.33750E+00  0.33750E+00 -0.67500E+00  0.00000E+00  0.00000E+00  0.00000E+00    0.95692E+02  0.14965E+03 -0.24535E+03 -0.65492E+01 -0.36733E+01  0.23984E+03      982.00
  0.51904E+00  0.55707E+03    0.35000E+00  0.35000E+00 -0.70000E+00  0.00000E+00  0.00000E+00  0.00000E+00    0.95524E+02  0.14976E+03 -0.24529E+03 -0.63533E+01 -0.36018E+01  0.23985E+03      982.00
  0.53555E+00  0.55704E+03    0.36250E+00  0.36250E+00 -0.72500E+00  0.00000E+00  0.00000E+00  0.00000E+00    0.95358E+02  0.14988E+03 -0.24523E+03 -0.61618E+01 -0.35322E+01  0.23986E+03      982.00
  0.55206E+00  0.55701E+03    0.37500E+00  0.37500E+00 -0.75000E+00  0.00000E+00  0.00000E+00  0.00000E+00    0.95193E+02  0.14999E+03 -0.24518E+03 -0.59749E+01 -0.34644E+01  0.23987E+03      982.00
  0.56856E+00  0.55698E+03    0.38750E+00  0.38750E+00 -0.77500E+00  0.00000E+00  0.00000E+00  0.00000E+00    0.95031E+02  0.15010E+03 -0.24513E+03 -0.57925E+01 -0.33981E+01  0.23987E+03      982.00
  0.58507E+00  0.55695E+03    0.40000E+00  0.40000E+00 -0.80000E+00  0.00000E+00  0.00000E+00  0.00000E+00    0.94871E+02  0.15021E+03 -0.24508E+03 -0.56148E+01 -0.33332E+01  0.23987E+03      982.00
  0.60157E+00  0.55691E+03    0.41250E+00  0.41250E+00 -0.82500E+00  0.00000E+00  0.00000E+00  0.00000E+00    0.94712E+02  0.15032E+03 -0.24504E+03 -0.54418E+01 -0.32695E+01  0.23987E+03      982.00
  0.61807E+00  0.55688E+03    0.42500E+00  0.42500E+00 -0.85000E+00  0.00000E+00  0.00000E+00  0.00000E+00    0.94555E+02  0.15044E+03 -0.24499E+03 -0.52734E+01 -0.32071E+01  0.23987E+03      982.00
  0.63457E+00  0.55684E+03    0.43750E+00  0.43750E+00 -0.87500E+00  0.00000E+00  0.00000E+00  0.00000E+00    0.94400E+02  0.15055E+03 -0.24495E+03 -0.51096E+01 -0.31458E+01  0.23986E+03      982.00
  0.65106E+00  0.55681E+03    0.45000E+00  0.45000E+00 -0.90000E+00  0.00000E+00  0.00000E+00  0.00000E+00    0.94247E+02  0.15067E+03 -0.24491E+03 -0.49504E+01 -0.30856E+01  0.23985E+03      982.00
  0.66756E+00  0.55677E+03    0.46250E+00  0.46250E+00 -0.92500E+00  0.00000E+00  0.00000E+00  0.00000E+00    0.94096E+02  0.15078E+03 -0.24488E+03 -0.47957E+01 -0.30265E+01  0.23984E+03      982.00
  0.68405E+00  0.55673E+03    0.47500E+00  0.47500E+00 -0.95000E+00  0.00000E+00  0.00000E+00  0.00000E+00    0.93946E+02  0.15090E+03 -0.24484E+03 -0.46454E+01 -0.29684E+01  0.23982E+03      982.00
  0.70054E+00  0.55670E+03    0.48750E+00  0.48750E+00 -0.97500E+00  0.00000E+00  0.00000E+00  0.00000E+00    0.93798E+02  0.15101E+03 -0.24481E+03 -0.44995E+01 -0.29115E+01  0.23981E+03      982.00
  0.71703E+00  0.55666E+03    0.50000E+00  0.50000E+00 -0.10000E+01  0.00000E+00  0.00000E+00  0.00000E+00    0.93652E+02  0.15113E+03 -0.24478E+03 -0.43579E+01 -0.28556E+01  0.23979E+03      982.00
