          Evm          Svm            E11          E22          E33          E23          E13          E12         SDEV11       SDEV22       SDEV33       SDEV23       SDEV13       SDEV12      TEMP
  0.00000E+00  0.15145E+03    0.00000E+00  0.00000E+00  0.00000E+00  0.00000E+00  0.00000E+00  0.00000E+00    0.54878E+02  0.44009E+02 -0.98887E+02  0.90119E+01  0.38471E+01  0.13626E+02      982.00
  0.24486E-01  0.15059E+03    0.12500E-01  0.12500E-01 -0.25000E-01  0.00000E+00  0.00000E+00  0.00000E+00    0.53822E+02  0.44378E+02 -0.98200E+02  0.79692E+01  0.35430E+01  0.15115E+02      982.00
  0.48939E-01  0.15537E+03    0.25000E-01  0.25000E-01 -0.50000E-01  0.00000E+00  0.00000E+00  0.00000E+00    0.53249E+02  0.47613E+02 -0.10086E+03  0.76241E+01  0.36946E+01  0.18368E+02      982.00
  0.73283E-01  0.16904E+03    0.37500E-01  0.37500E-01 -0.75000E-01  0.00000E+00  0.00000E+00  0.00000E+00    0.52433E+02  0.56074E+02 -0.10851E+03  0.77950E+01  0.43807E+01  0.24731E+02      982.00
  0.97354E-01  0.19479E+03    0.50000E-01  0.50000E-01 -0.10000E+00  0.00000E+00  0.00000E+00  0.00000E+00    0.49439E+02  0.72637E+02 -0.12208E+03  0.77792E+01  0.55936E+01  0.35276E+02      982.00
  0.12086E+00  0.21561E+03    0.62500E-01  0.62500E-01 -0.12500E+00  0.00000E+00  0.00000E+00  0.00000E+00    0.45713E+02  0.86361E+02 -0.13207E+03  0.69401E+01  0.65582E+01  0.43697E+02      982.00
  0.14383E+00  0.23190E+03    0.75000E-01  0.75000E-01 -0.15000E+00  0.00000E+00  0.00000E+00  0.00000E+00    0.45674E+02  0.94063E+02 -0.13974E+03  0.74396E+01  0.72837E+01  0.50872E+02      982.00
  0.16642E+00  0.25468E+03    0.87500E-01  0.87500E-01 -0.17500E+00  0.00000E+00  0.00000E+00  0.00000E+00    0.48134E+02  0.10258E+03 -0.15071E+03  0.89155E+01  0.79081E+01  0.60843E+02      982.00
  0.18861E+00  0.28344E+03    0.10000E+00  0.10000E+00 -0.20000E+00  0.00000E+00  0.00000E+00  0.00000E+00    0.51935E+02  0.11256E+03 -0.16450E+03  0.10455E+02  0.84176E+01  0.73381E+02      982.00
  0.21038E+00  0.31309E+03    0.11250E+00  0.11250E+00 -0.22500E+00  0.00000E+00  0.00000E+00  0.00000E+00    0.56439E+02  0.12225E+03 -0.17868E+03  0.11681E+02  0.86672E+01  0.86231E+02      982.00
  0.23178E+00  0.33954E+03    0.12500E+00  0.12500E+00 -0.25000E+00  0.00000E+00  0.00000E+00  0.00000E+00    0.60995E+02  0.13039E+03 -0.19139E+03  0.12465E+02  0.86228E+01  0.97589E+02      982.00
  0.25292E+00  0.36113E+03    0.13750E+00  0.13750E+00 -0.27500E+00  0.00000E+00  0.00000E+00  0.00000E+00    0.65126E+02  0.13677E+03 -0.20190E+03  0.12854E+02  0.83433E+01  0.10669E+03      982.00
  0.27388E+00  0.37790E+03    0.15000E+00  0.15000E+00 -0.30000E+00  0.00000E+00  0.00000E+00  0.00000E+00    0.68673E+02  0.14158E+03 -0.21025E+03  0.12953E+02  0.79123E+01  0.11353E+03      982.00
  0.29475E+00  0.39050E+03    0.16250E+00  0.16250E+00 -0.32500E+00  0.00000E+00  0.00000E+00  0.00000E+00    0.71627E+02  0.14515E+03 -0.21677E+03  0.12856E+02  0.73919E+01  0.11838E+03      982.00
  0.31556E+00  0.39980E+03    0.17500E+00  0.17500E+00 -0.35000E+00  0.00000E+00  0.00000E+00  0.00000E+00    0.74174E+02  0.14769E+03 -0.22186E+03  0.12637E+02  0.68377E+01  0.12168E+03      982.00
  0.33637E+00  0.40639E+03    0.18750E+00  0.18750E+00 -0.37500E+00  0.00000E+00  0.00000E+00  0.00000E+00    0.76350E+02  0.14945E+03 -0.22580E+03  0.12345E+02  0.62685E+01  0.12363E+03      982.00
  0.35721E+00  0.41091E+03    0.20000E+00  0.20000E+00 -0.40000E+00  0.00000E+00  0.00000E+00  0.00000E+00    0.78310E+02  0.15054E+03 -0.22885E+03  0.12009E+02  0.57141E+01  0.12458E+03      982.00
  0.37809E+00  0.41368E+03    0.21250E+00  0.21250E+00 -0.42500E+00  0.00000E+00  0.00000E+00  0.00000E+00    0.80120E+02  0.15107E+03 -0.23119E+03  0.11648E+02  0.51849E+01  0.12465E+03      982.00
  0.39905E+00  0.41500E+03    0.22500E+00  0.22500E+00 -0.45000E+00  0.00000E+00  0.00000E+00  0.00000E+00    0.81814E+02  0.15113E+03 -0.23294E+03  0.11302E+02  0.46844E+01  0.12394E+03      982.00
  0.42010E+00  0.41522E+03    0.23750E+00  0.23750E+00 -0.47500E+00  0.00000E+00  0.00000E+00  0.00000E+00    0.83398E+02  0.15087E+03 -0.23427E+03  0.10981E+02  0.42173E+01  0.12260E+03      982.00
  0.44126E+00  0.41140E+03    0.25000E+00  0.25000E+00 -0.50000E+00  0.00000E+00  0.00000E+00  0.00000E+00    0.84041E+02  0.14957E+03 -0.23361E+03  0.10649E+02  0.38862E+01  0.11952E+03      982.00
  0.46255E+00  0.40765E+03    0.26250E+00  0.26250E+00 -0.52500E+00  0.00000E+00  0.00000E+00  0.00000E+00    0.84942E+02  0.14804E+03 -0.23298E+03  0.10353E+02  0.35933E+01  0.11648E+03      982.00
  0.48398E+00  0.40385E+03    0.27500E+00  0.27500E+00 -0.55000E+00  0.00000E+00  0.00000E+00  0.00000E+00    0.85958E+02  0.14639E+03 -0.23235E+03  0.10104E+02  0.33323E+01  0.11336E+03      982.00
  0.50556E+00  0.40022E+03    0.28750E+00  0.28750E+00 -0.57500E+00  0.00000E+00  0.00000E+00  0.00000E+00    0.87029E+02  0.14477E+03 -0.23180E+03  0.98837E+01  0.30992E+01  0.11024E+03      982.00
  0.52728E+00  0.39669E+03    0.30000E+00  0.30000E+00 -0.60000E+00  0.00000E+00  0.00000E+00  0.00000E+00    0.88178E+02  0.14313E+03 -0.23131E+03  0.96992E+01  0.28985E+01  0.10710E+03      982.00
  0.54914E+00  0.39329E+03    0.31250E+00  0.31250E+00 -0.62500E+00  0.00000E+00  0.00000E+00  0.00000E+00    0.89409E+02  0.14147E+03 -0.23088E+03  0.95488E+01  0.27310E+01  0.10395E+03      982.00
  0.57116E+00  0.39005E+03    0.32500E+00  0.32500E+00 -0.65000E+00  0.00000E+00  0.00000E+00  0.00000E+00    0.90724E+02  0.13979E+03 -0.23051E+03  0.94304E+01  0.25973E+01  0.10081E+03      982.00
  0.59332E+00  0.38698E+03    0.33750E+00  0.33750E+00 -0.67500E+00  0.00000E+00  0.00000E+00  0.00000E+00    0.92135E+02  0.13809E+03 -0.23023E+03  0.93419E+01  0.24992E+01  0.97691E+02      982.00
  0.61563E+00  0.38395E+03    0.35000E+00  0.35000E+00 -0.70000E+00  0.00000E+00  0.00000E+00  0.00000E+00    0.93687E+02  0.13626E+03 -0.22995E+03  0.93123E+01  0.24318E+01  0.94529E+02      982.00
  0.63809E+00  0.38131E+03    0.36250E+00  0.36250E+00 -0.72500E+00  0.00000E+00  0.00000E+00  0.00000E+00    0.95263E+02  0.13457E+03 -0.22984E+03  0.92699E+01  0.23960E+01  0.91482E+02      982.00
  0.66069E+00  0.37891E+03    0.37500E+00  0.37500E+00 -0.75000E+00  0.00000E+00  0.00000E+00  0.00000E+00    0.96922E+02  0.13290E+03 -0.22982E+03  0.92473E+01  0.23897E+01  0.88486E+02      982.00
  0.68344E+00  0.37674E+03    0.38750E+00  0.38750E+00 -0.77500E+00  0.00000E+00  0.00000E+00  0.00000E+00    0.98653E+02  0.13124E+03 -0.22989E+03  0.92412E+01  0.24095E+01  0.85545E+02      982.00
  0.70632E+00  0.37482E+03    0.40000E+00  0.40000E+00 -0.80000E+00  0.00000E+00  0.00000E+00  0.00000E+00    0.10043E+03  0.12962E+03 -0.23005E+03  0.92489E+01  0.24501E+01  0.82656E+02      982.00
  0.72933E+00  0.37325E+03    0.41250E+00  0.41250E+00 -0.82500E+00  0.00000E+00  0.00000E+00  0.00000E+00    0.10216E+03  0.12820E+03 -0.23036E+03  0.92402E+01  0.25059E+01  0.79853E+02      982.00
  0.75248E+00  0.37175E+03    0.42500E+00  0.42500E+00 -0.85000E+00  0.00000E+00  0.00000E+00  0.00000E+00    0.10405E+03  0.12662E+03 -0.23067E+03  0.93054E+01  0.25741E+01  0.77069E+02      982.00
  0.77575E+00  0.37055E+03    0.43750E+00  0.43750E+00 -0.87500E+00  0.00000E+00  0.00000E+00  0.00000E+00    0.10586E+03  0.12523E+03 -0.23109E+03  0.93330E+01  0.26480E+01  0.74361E+02      982.00
  0.79913E+00  0.36962E+03    0.45000E+00  0.45000E+00 -0.90000E+00  0.00000E+00  0.00000E+00  0.00000E+00    0.10763E+03  0.12398E+03 -0.23161E+03  0.93361E+01  0.27220E+01  0.71722E+02      982.00
  0.82263E+00  0.36888E+03    0.46250E+00  0.46250E+00 -0.92500E+00  0.00000E+00  0.00000E+00  0.00000E+00    0.10934E+03  0.12286E+03 -0.23220E+03  0.93713E+01  0.27921E+01  0.69135E+02      982.00
  0.84624E+00  0.36836E+03    0.47500E+00  0.47500E+00 -0.95000E+00  0.00000E+00  0.00000E+00  0.00000E+00    0.11099E+03  0.12187E+03 -0.23286E+03  0.94076E+01  0.28564E+01  0.66613E+02      982.00
  0.86994E+00  0.36794E+03    0.48750E+00  0.48750E+00 -0.97500E+00  0.00000E+00  0.00000E+00  0.00000E+00    0.11262E+03  0.12090E+03 -0.23352E+03  0.94635E+01  0.29126E+01  0.64139E+02      982.00
  0.89374E+00  0.36792E+03    0.50000E+00  0.50000E+00 -0.10000E+01  0.00000E+00  0.00000E+00  0.00000E+00    0.11409E+03  0.12028E+03 -0.23437E+03  0.94829E+01  0.29600E+01  0.61781E+02      982.00
