          Evm          Svm            E11          E22          E33          E23          E13          E12         SDEV11       SDEV22       SDEV33       SDEV23       SDEV13       SDEV12      TEMP
  0.00000E+00  0.17068E+03    0.00000E+00  0.00000E+00  0.00000E+00  0.00000E+00  0.00000E+00  0.00000E+00    0.61317E+02  0.49783E+02 -0.11110E+03 -0.76205E+01 -0.10535E+02  0.15852E+02      982.00
  0.24409E-01  0.17531E+03    0.12500E-01  0.12500E-01 -0.25000E-01  0.00000E+00  0.00000E+00  0.00000E+00    0.61084E+02  0.52656E+02 -0.11374E+03 -0.74443E+01 -0.99496E+01  0.19236E+02      982.00
  0.48739E-01  0.18799E+03    0.25000E-01  0.25000E-01 -0.50000E-01  0.00000E+00  0.00000E+00  0.00000E+00    0.61406E+02  0.59722E+02 -0.12113E+03 -0.81369E+01 -0.98219E+01  0.24743E+02      982.00
  0.72902E-01  0.19360E+03    0.37500E-01  0.37500E-01 -0.75000E-01  0.00000E+00  0.00000E+00  0.00000E+00    0.59366E+02  0.64913E+02 -0.12428E+03 -0.83514E+01 -0.87405E+01  0.27491E+02      982.00
  0.96974E-01  0.19653E+03    0.50000E-01  0.50000E-01 -0.10000E+00  0.00000E+00  0.00000E+00  0.00000E+00    0.58507E+02  0.67225E+02 -0.12573E+03 -0.77839E+01 -0.72933E+01  0.29747E+02      982.00
  0.12097E+00  0.20716E+03    0.62500E-01  0.62500E-01 -0.12500E+00  0.00000E+00  0.00000E+00  0.00000E+00    0.60202E+02  0.71221E+02 -0.13142E+03 -0.71665E+01 -0.65087E+01  0.35039E+02      982.00
  0.14476E+00  0.22602E+03    0.75000E-01  0.75000E-01 -0.15000E+00  0.00000E+00  0.00000E+00  0.00000E+00    0.63905E+02  0.77574E+02 -0.14148E+03 -0.68319E+01 -0.62986E+01  0.43403E+02      982.00
  0.16823E+00  0.25119E+03    0.87500E-01  0.87500E-01 -0.17500E+00  0.00000E+00  0.00000E+00  0.00000E+00    0.68882E+02  0.85857E+02 -0.15474E+03 -0.67256E+01 -0.64221E+01  0.54000E+02      982.00
  0.19133E+00  0.27848E+03    0.10000E+00  0.10000E+00 -0.20000E+00  0.00000E+00  0.00000E+00  0.00000E+00    0.74060E+02  0.94949E+02 -0.16901E+03 -0.66697E+01 -0.66556E+01  0.65026E+02      982.00
  0.21409E+00  0.30346E+03    0.11250E+00  0.11250E+00 -0.22500E+00  0.00000E+00  0.00000E+00  0.00000E+00    0.78559E+02  0.10357E+03 -0.18213E+03 -0.65497E+01 -0.68679E+01  0.74645E+02      982.00
  0.23659E+00  0.32402E+03    0.12500E+00  0.12500E+00 -0.25000E+00  0.00000E+00  0.00000E+00  0.00000E+00    0.82054E+02  0.11104E+03 -0.19309E+03 -0.63604E+01 -0.70108E+01  0.82053E+02      982.00
  0.25894E+00  0.33987E+03    0.13750E+00  0.13750E+00 -0.27500E+00  0.00000E+00  0.00000E+00  0.00000E+00    0.84642E+02  0.11718E+03 -0.20182E+03 -0.61398E+01 -0.71018E+01  0.87204E+02      982.00
  0.28121E+00  0.35170E+03    0.15000E+00  0.15000E+00 -0.30000E+00  0.00000E+00  0.00000E+00  0.00000E+00    0.86519E+02  0.12212E+03 -0.20864E+03 -0.59209E+01 -0.71570E+01  0.90437E+02      982.00
  0.30346E+00  0.36032E+03    0.16250E+00  0.16250E+00 -0.32500E+00  0.00000E+00  0.00000E+00  0.00000E+00    0.87870E+02  0.12610E+03 -0.21397E+03 -0.57262E+01 -0.71920E+01  0.92135E+02      982.00
  0.32572E+00  0.36645E+03    0.17500E+00  0.17500E+00 -0.35000E+00  0.00000E+00  0.00000E+00  0.00000E+00    0.88827E+02  0.12932E+03 -0.21815E+03 -0.55715E+01 -0.72183E+01  0.92611E+02      982.00
  0.34805E+00  0.37072E+03    0.18750E+00  0.18750E+00 -0.37500E+00  0.00000E+00  0.00000E+00  0.00000E+00    0.89483E+02  0.13199E+03 -0.22148E+03 -0.54677E+01 -0.72442E+01  0.92128E+02      982.00
  0.37045E+00  0.37358E+03    0.20000E+00  0.20000E+00 -0.40000E+00  0.00000E+00  0.00000E+00  0.00000E+00    0.89928E+02  0.13424E+03 -0.22417E+03 -0.54235E+01 -0.72844E+01  0.90880E+02      982.00
  0.39295E+00  0.37540E+03    0.21250E+00  0.21250E+00 -0.42500E+00  0.00000E+00  0.00000E+00  0.00000E+00    0.90271E+02  0.13612E+03 -0.22639E+03 -0.54347E+01 -0.73453E+01  0.89018E+02      982.00
  0.41557E+00  0.37646E+03    0.22500E+00  0.22500E+00 -0.45000E+00  0.00000E+00  0.00000E+00  0.00000E+00    0.90532E+02  0.13776E+03 -0.22829E+03 -0.55084E+01 -0.74340E+01  0.86665E+02      982.00
  0.43831E+00  0.37704E+03    0.23750E+00  0.23750E+00 -0.47500E+00  0.00000E+00  0.00000E+00  0.00000E+00    0.90715E+02  0.13927E+03 -0.22998E+03 -0.56500E+01 -0.75576E+01  0.83903E+02      982.00
  0.46118E+00  0.37489E+03    0.25000E+00  0.25000E+00 -0.50000E+00  0.00000E+00  0.00000E+00  0.00000E+00    0.90631E+02  0.13947E+03 -0.23010E+03 -0.57775E+01 -0.75931E+01  0.80310E+02      982.00
  0.48420E+00  0.37308E+03    0.26250E+00  0.26250E+00 -0.52500E+00  0.00000E+00  0.00000E+00  0.00000E+00    0.90666E+02  0.13967E+03 -0.23034E+03 -0.59108E+01 -0.76413E+01  0.76878E+02      982.00
  0.50735E+00  0.37150E+03    0.27500E+00  0.27500E+00 -0.55000E+00  0.00000E+00  0.00000E+00  0.00000E+00    0.90810E+02  0.13985E+03 -0.23066E+03 -0.60773E+01 -0.77352E+01  0.73493E+02      982.00
  0.53064E+00  0.37019E+03    0.28750E+00  0.28750E+00 -0.57500E+00  0.00000E+00  0.00000E+00  0.00000E+00    0.91084E+02  0.14001E+03 -0.23110E+03 -0.62271E+01 -0.78224E+01  0.70197E+02      982.00
  0.55405E+00  0.36903E+03    0.30000E+00  0.30000E+00 -0.60000E+00  0.00000E+00  0.00000E+00  0.00000E+00    0.91425E+02  0.14015E+03 -0.23157E+03 -0.63804E+01 -0.79195E+01  0.66914E+02      982.00
  0.57758E+00  0.36824E+03    0.31250E+00  0.31250E+00 -0.62500E+00  0.00000E+00  0.00000E+00  0.00000E+00    0.91952E+02  0.14025E+03 -0.23220E+03 -0.65294E+01 -0.80277E+01  0.63817E+02      982.00
  0.60122E+00  0.36771E+03    0.32500E+00  0.32500E+00 -0.65000E+00  0.00000E+00  0.00000E+00  0.00000E+00    0.92588E+02  0.14033E+03 -0.23292E+03 -0.66741E+01 -0.81399E+01  0.60828E+02      982.00
  0.62498E+00  0.36742E+03    0.33750E+00  0.33750E+00 -0.67500E+00  0.00000E+00  0.00000E+00  0.00000E+00    0.93328E+02  0.14041E+03 -0.23374E+03 -0.68465E+01 -0.82920E+01  0.57912E+02      982.00
  0.64884E+00  0.36739E+03    0.35000E+00  0.35000E+00 -0.70000E+00  0.00000E+00  0.00000E+00  0.00000E+00    0.94156E+02  0.14049E+03 -0.23464E+03 -0.69681E+01 -0.83930E+01  0.55162E+02      982.00
  0.67279E+00  0.36751E+03    0.36250E+00  0.36250E+00 -0.72500E+00  0.00000E+00  0.00000E+00  0.00000E+00    0.95035E+02  0.14055E+03 -0.23558E+03 -0.70623E+01 -0.84645E+01  0.52517E+02      982.00
  0.69682E+00  0.36794E+03    0.37500E+00  0.37500E+00 -0.75000E+00  0.00000E+00  0.00000E+00  0.00000E+00    0.96011E+02  0.14064E+03 -0.23665E+03 -0.71702E+01 -0.85571E+01  0.50005E+02      982.00
  0.72094E+00  0.36857E+03    0.38750E+00  0.38750E+00 -0.77500E+00  0.00000E+00  0.00000E+00  0.00000E+00    0.97045E+02  0.14075E+03 -0.23779E+03 -0.72674E+01 -0.86403E+01  0.47610E+02      982.00
  0.74514E+00  0.36939E+03    0.40000E+00  0.40000E+00 -0.80000E+00  0.00000E+00  0.00000E+00  0.00000E+00    0.98127E+02  0.14088E+03 -0.23900E+03 -0.73535E+01 -0.87128E+01  0.45329E+02      982.00
  0.76940E+00  0.37039E+03    0.41250E+00  0.41250E+00 -0.82500E+00  0.00000E+00  0.00000E+00  0.00000E+00    0.99249E+02  0.14102E+03 -0.24027E+03 -0.74284E+01 -0.87741E+01  0.43159E+02      982.00
  0.79373E+00  0.37155E+03    0.42500E+00  0.42500E+00 -0.85000E+00  0.00000E+00  0.00000E+00  0.00000E+00    0.10040E+03  0.14119E+03 -0.24160E+03 -0.74924E+01 -0.88239E+01  0.41097E+02      982.00
  0.81811E+00  0.37279E+03    0.43750E+00  0.43750E+00 -0.87500E+00  0.00000E+00  0.00000E+00  0.00000E+00    0.10160E+03  0.14134E+03 -0.24294E+03 -0.75792E+01 -0.89131E+01  0.39083E+02      982.00
  0.84255E+00  0.37423E+03    0.45000E+00  0.45000E+00 -0.90000E+00  0.00000E+00  0.00000E+00  0.00000E+00    0.10281E+03  0.14155E+03 -0.24436E+03 -0.76172E+01 -0.89350E+01  0.37232E+02      982.00
  0.86704E+00  0.37578E+03    0.46250E+00  0.46250E+00 -0.92500E+00  0.00000E+00  0.00000E+00  0.00000E+00    0.10403E+03  0.14178E+03 -0.24581E+03 -0.76491E+01 -0.89486E+01  0.35471E+02      982.00
  0.89157E+00  0.37744E+03    0.47500E+00  0.47500E+00 -0.95000E+00  0.00000E+00  0.00000E+00  0.00000E+00    0.10526E+03  0.14204E+03 -0.24730E+03 -0.76689E+01 -0.89492E+01  0.33805E+02      982.00
  0.91614E+00  0.37919E+03    0.48750E+00  0.48750E+00 -0.97500E+00  0.00000E+00  0.00000E+00  0.00000E+00    0.10650E+03  0.14232E+03 -0.24881E+03 -0.76808E+01 -0.89406E+01  0.32224E+02      982.00
  0.94074E+00  0.38103E+03    0.50000E+00  0.50000E+00 -0.10000E+01  0.00000E+00  0.00000E+00  0.00000E+00    0.10776E+03  0.14260E+03 -0.25036E+03 -0.77080E+01 -0.89648E+01  0.30696E+02      982.00
