          Evm          Svm            E11          E22          E33          E23          E13          E12         SDEV11       SDEV22       SDEV33       SDEV23       SDEV13       SDEV12      TEMP
  0.00000E+00  0.18093E+03    0.00000E+00  0.00000E+00  0.00000E+00  0.00000E+00  0.00000E+00  0.00000E+00    0.51010E+02  0.57943E+02 -0.10895E+03  0.11321E+02  0.12985E+02  0.41228E+02      982.00
  0.22582E-01  0.18212E+03    0.12500E-01  0.12500E-01 -0.25000E-01  0.00000E+00  0.00000E+00  0.00000E+00    0.51344E+02  0.57884E+02 -0.10923E+03  0.86251E+01  0.11107E+02  0.43577E+02      982.00
  0.45073E-01  0.17454E+03    0.25000E-01  0.25000E-01 -0.50000E-01  0.00000E+00  0.00000E+00  0.00000E+00    0.51371E+02  0.54067E+02 -0.10544E+03  0.62508E+01  0.84560E+01  0.41291E+02      982.00
  0.67726E-01  0.17659E+03    0.37500E-01  0.37500E-01 -0.75000E-01  0.00000E+00  0.00000E+00  0.00000E+00    0.52967E+02  0.52900E+02 -0.10587E+03  0.52490E+01  0.72632E+01  0.43689E+02      982.00
  0.90208E-01  0.18894E+03    0.50000E-01  0.50000E-01 -0.10000E+00  0.00000E+00  0.00000E+00  0.00000E+00    0.56393E+02  0.54391E+02 -0.11078E+03  0.50417E+01  0.70696E+01  0.51164E+02      982.00
  0.11220E+00  0.21144E+03    0.62500E-01  0.62500E-01 -0.12500E+00  0.00000E+00  0.00000E+00  0.00000E+00    0.61755E+02  0.58070E+02 -0.11982E+03  0.53239E+01  0.75076E+01  0.63602E+02      982.00
  0.13345E+00  0.24527E+03    0.75000E-01  0.75000E-01 -0.15000E+00  0.00000E+00  0.00000E+00  0.00000E+00    0.69286E+02  0.63863E+02 -0.13315E+03  0.59853E+01  0.84134E+01  0.81498E+02      982.00
  0.15381E+00  0.29012E+03    0.87500E-01  0.87500E-01 -0.17500E+00  0.00000E+00  0.00000E+00  0.00000E+00    0.78841E+02  0.71550E+02 -0.15039E+03  0.69165E+01  0.96287E+01  0.10459E+03      982.00
  0.17324E+00  0.33987E+03    0.10000E+00  0.10000E+00 -0.20000E+00  0.00000E+00  0.00000E+00  0.00000E+00    0.89118E+02  0.80052E+02 -0.16917E+03  0.78773E+01  0.10883E+02  0.12976E+03      982.00
  0.19191E+00  0.38535E+03    0.11250E+00  0.11250E+00 -0.22500E+00  0.00000E+00  0.00000E+00  0.00000E+00    0.98283E+02  0.87898E+02 -0.18618E+03  0.86295E+01  0.11915E+02  0.15250E+03      982.00
  0.21003E+00  0.42174E+03    0.12500E+00  0.12500E+00 -0.25000E+00  0.00000E+00  0.00000E+00  0.00000E+00    0.10543E+03  0.94340E+02 -0.19977E+03  0.91157E+01  0.12648E+02  0.17053E+03      982.00
  0.22779E+00  0.44961E+03    0.13750E+00  0.13750E+00 -0.27500E+00  0.00000E+00  0.00000E+00  0.00000E+00    0.11073E+03  0.99447E+02 -0.21017E+03  0.93997E+01  0.13133E+02  0.18428E+03      982.00
  0.24532E+00  0.47080E+03    0.15000E+00  0.15000E+00 -0.30000E+00  0.00000E+00  0.00000E+00  0.00000E+00    0.11458E+03  0.10349E+03 -0.21807E+03  0.95482E+01  0.13435E+02  0.19472E+03      982.00
  0.26269E+00  0.48733E+03    0.16250E+00  0.16250E+00 -0.32500E+00  0.00000E+00  0.00000E+00  0.00000E+00    0.11742E+03  0.10676E+03 -0.22418E+03  0.96025E+01  0.13589E+02  0.20289E+03      982.00
  0.27994E+00  0.50020E+03    0.17500E+00  0.17500E+00 -0.35000E+00  0.00000E+00  0.00000E+00  0.00000E+00    0.11952E+03  0.10936E+03 -0.22888E+03  0.95963E+01  0.13634E+02  0.20930E+03      982.00
  0.29710E+00  0.51090E+03    0.18750E+00  0.18750E+00 -0.37500E+00  0.00000E+00  0.00000E+00  0.00000E+00    0.12111E+03  0.11160E+03 -0.23271E+03  0.95317E+01  0.13576E+02  0.21469E+03      982.00
  0.31418E+00  0.51965E+03    0.20000E+00  0.20000E+00 -0.40000E+00  0.00000E+00  0.00000E+00  0.00000E+00    0.12224E+03  0.11352E+03 -0.23576E+03  0.94205E+01  0.13431E+02  0.21917E+03      982.00
  0.33120E+00  0.52703E+03    0.21250E+00  0.21250E+00 -0.42500E+00  0.00000E+00  0.00000E+00  0.00000E+00    0.12311E+03  0.11516E+03 -0.23827E+03  0.92785E+01  0.13226E+02  0.22300E+03      982.00
  0.34815E+00  0.53334E+03    0.22500E+00  0.22500E+00 -0.45000E+00  0.00000E+00  0.00000E+00  0.00000E+00    0.12375E+03  0.11660E+03 -0.24035E+03  0.91026E+01  0.12953E+02  0.22634E+03      982.00
  0.36505E+00  0.53874E+03    0.23750E+00  0.23750E+00 -0.47500E+00  0.00000E+00  0.00000E+00  0.00000E+00    0.12420E+03  0.11786E+03 -0.24206E+03  0.89014E+01  0.12630E+02  0.22925E+03      982.00
  0.38190E+00  0.54340E+03    0.25000E+00  0.25000E+00 -0.50000E+00  0.00000E+00  0.00000E+00  0.00000E+00    0.12448E+03  0.11900E+03 -0.24348E+03  0.86806E+01  0.12270E+02  0.23180E+03      982.00
  0.39870E+00  0.54760E+03    0.26250E+00  0.26250E+00 -0.52500E+00  0.00000E+00  0.00000E+00  0.00000E+00    0.12470E+03  0.12002E+03 -0.24472E+03  0.84460E+01  0.11877E+02  0.23414E+03      982.00
  0.41546E+00  0.55135E+03    0.27500E+00  0.27500E+00 -0.55000E+00  0.00000E+00  0.00000E+00  0.00000E+00    0.12486E+03  0.12093E+03 -0.24579E+03  0.82017E+01  0.11461E+02  0.23625E+03      982.00
  0.43218E+00  0.55464E+03    0.28750E+00  0.28750E+00 -0.57500E+00  0.00000E+00  0.00000E+00  0.00000E+00    0.12492E+03  0.12178E+03 -0.24670E+03  0.79521E+01  0.11030E+02  0.23813E+03      982.00
  0.44886E+00  0.55560E+03    0.30000E+00  0.30000E+00 -0.60000E+00  0.00000E+00  0.00000E+00  0.00000E+00    0.12465E+03  0.12205E+03 -0.24670E+03  0.76877E+01  0.10549E+02  0.23892E+03      982.00
  0.46551E+00  0.55644E+03    0.31250E+00  0.31250E+00 -0.62500E+00  0.00000E+00  0.00000E+00  0.00000E+00    0.12438E+03  0.12230E+03 -0.24668E+03  0.74273E+01  0.10092E+02  0.23961E+03      982.00
  0.48213E+00  0.55720E+03    0.32500E+00  0.32500E+00 -0.65000E+00  0.00000E+00  0.00000E+00  0.00000E+00    0.12416E+03  0.12250E+03 -0.24666E+03  0.71762E+01  0.96396E+01  0.24024E+03      982.00
  0.49873E+00  0.55797E+03    0.33750E+00  0.33750E+00 -0.67500E+00  0.00000E+00  0.00000E+00  0.00000E+00    0.12396E+03  0.12272E+03 -0.24667E+03  0.69302E+01  0.92117E+01  0.24085E+03      982.00
  0.51531E+00  0.55864E+03    0.35000E+00  0.35000E+00 -0.70000E+00  0.00000E+00  0.00000E+00  0.00000E+00    0.12379E+03  0.12288E+03 -0.24667E+03  0.67014E+01  0.87927E+01  0.24139E+03      982.00
  0.53187E+00  0.55935E+03    0.36250E+00  0.36250E+00 -0.72500E+00  0.00000E+00  0.00000E+00  0.00000E+00    0.12362E+03  0.12308E+03 -0.24670E+03  0.64695E+01  0.83846E+01  0.24194E+03      982.00
  0.54841E+00  0.55994E+03    0.37500E+00  0.37500E+00 -0.75000E+00  0.00000E+00  0.00000E+00  0.00000E+00    0.12349E+03  0.12322E+03 -0.24671E+03  0.62621E+01  0.79994E+01  0.24240E+03      982.00
  0.56493E+00  0.56049E+03    0.38750E+00  0.38750E+00 -0.77500E+00  0.00000E+00  0.00000E+00  0.00000E+00    0.12339E+03  0.12334E+03 -0.24673E+03  0.60640E+01  0.76312E+01  0.24283E+03      982.00
  0.58144E+00  0.56109E+03    0.40000E+00  0.40000E+00 -0.80000E+00  0.00000E+00  0.00000E+00  0.00000E+00    0.12327E+03  0.12351E+03 -0.24678E+03  0.58490E+01  0.72371E+01  0.24327E+03      982.00
  0.59793E+00  0.56156E+03    0.41250E+00  0.41250E+00 -0.82500E+00  0.00000E+00  0.00000E+00  0.00000E+00    0.12320E+03  0.12361E+03 -0.24681E+03  0.56687E+01  0.69020E+01  0.24363E+03      982.00
  0.61441E+00  0.56201E+03    0.42500E+00  0.42500E+00 -0.85000E+00  0.00000E+00  0.00000E+00  0.00000E+00    0.12316E+03  0.12369E+03 -0.24685E+03  0.54769E+01  0.65427E+01  0.24395E+03      982.00
  0.63088E+00  0.56248E+03    0.43750E+00  0.43750E+00 -0.87500E+00  0.00000E+00  0.00000E+00  0.00000E+00    0.12311E+03  0.12381E+03 -0.24692E+03  0.52851E+01  0.61979E+01  0.24428E+03      982.00
  0.64735E+00  0.56286E+03    0.45000E+00  0.45000E+00 -0.90000E+00  0.00000E+00  0.00000E+00  0.00000E+00    0.12307E+03  0.12388E+03 -0.24695E+03  0.51268E+01  0.59081E+01  0.24455E+03      982.00
  0.66380E+00  0.56321E+03    0.46250E+00  0.46250E+00 -0.92500E+00  0.00000E+00  0.00000E+00  0.00000E+00    0.12301E+03  0.12396E+03 -0.24697E+03  0.49888E+01  0.56508E+01  0.24481E+03      982.00
  0.68024E+00  0.56352E+03    0.47500E+00  0.47500E+00 -0.95000E+00  0.00000E+00  0.00000E+00  0.00000E+00    0.12300E+03  0.12400E+03 -0.24700E+03  0.48430E+01  0.53893E+01  0.24504E+03      982.00
  0.69668E+00  0.56382E+03    0.48750E+00  0.48750E+00 -0.97500E+00  0.00000E+00  0.00000E+00  0.00000E+00    0.12300E+03  0.12404E+03 -0.24703E+03  0.46982E+01  0.51333E+01  0.24525E+03      982.00
  0.71311E+00  0.56410E+03    0.50000E+00  0.50000E+00 -0.10000E+01  0.00000E+00  0.00000E+00  0.00000E+00    0.12300E+03  0.12407E+03 -0.24707E+03  0.45574E+01  0.48875E+01  0.24544E+03      982.00
