          Evm          Svm            E11          E22          E33          E23          E13          E12         SDEV11       SDEV22       SDEV33       SDEV23       SDEV13       SDEV12      TEMP
  0.00000E+00  0.17447E+03    0.00000E+00  0.00000E+00  0.00000E+00  0.00000E+00  0.00000E+00  0.00000E+00    0.48586E+02  0.56403E+02 -0.10499E+03  0.77038E+01  0.52062E+01  0.42171E+02      982.00
  0.22565E-01  0.17412E+03    0.12500E-01  0.12500E-01 -0.25000E-01  0.00000E+00  0.00000E+00  0.00000E+00    0.50060E+02  0.54427E+02 -0.10449E+03  0.59655E+01  0.41052E+01  0.43134E+02      982.00
  0.45069E-01  0.17780E+03    0.25000E-01  0.25000E-01 -0.50000E-01  0.00000E+00  0.00000E+00  0.00000E+00    0.51913E+02  0.53733E+02 -0.10565E+03  0.50659E+01  0.35309E+01  0.46127E+02      982.00
  0.67351E-01  0.18719E+03    0.37500E-01  0.37500E-01 -0.75000E-01  0.00000E+00  0.00000E+00  0.00000E+00    0.54591E+02  0.54561E+02 -0.10915E+03  0.46158E+01  0.33513E+01  0.52075E+02      982.00
  0.89217E-01  0.20304E+03    0.50000E-01  0.50000E-01 -0.10000E+00  0.00000E+00  0.00000E+00  0.00000E+00    0.58340E+02  0.56842E+02 -0.11518E+03  0.44419E+01  0.34796E+01  0.61309E+02      982.00
  0.11049E+00  0.22667E+03    0.62500E-01  0.62500E-01 -0.12500E+00  0.00000E+00  0.00000E+00  0.00000E+00    0.63454E+02  0.60668E+02 -0.12412E+03  0.44684E+01  0.38931E+01  0.74395E+02      982.00
  0.13103E+00  0.25981E+03    0.75000E-01  0.75000E-01 -0.15000E+00  0.00000E+00  0.00000E+00  0.00000E+00    0.70251E+02  0.66207E+02 -0.13646E+03  0.46507E+01  0.45425E+01  0.92134E+02      982.00
  0.15072E+00  0.30200E+03    0.87500E-01  0.87500E-01 -0.17500E+00  0.00000E+00  0.00000E+00  0.00000E+00    0.78584E+02  0.73317E+02 -0.15190E+03  0.49231E+01  0.53474E+01  0.11417E+03      982.00
  0.16958E+00  0.34835E+03    0.10000E+00  0.10000E+00 -0.20000E+00  0.00000E+00  0.00000E+00  0.00000E+00    0.87452E+02  0.81198E+02 -0.16865E+03  0.51628E+01  0.61478E+01  0.13800E+03      982.00
  0.18774E+00  0.39122E+03    0.11250E+00  0.11250E+00 -0.22500E+00  0.00000E+00  0.00000E+00  0.00000E+00    0.95392E+02  0.88659E+02 -0.18405E+03  0.52599E+01  0.68026E+01  0.15977E+03      982.00
  0.20538E+00  0.42658E+03    0.12500E+00  0.12500E+00 -0.25000E+00  0.00000E+00  0.00000E+00  0.00000E+00    0.10170E+03  0.95065E+02 -0.19677E+03  0.52100E+01  0.72717E+01  0.17756E+03      982.00
  0.22268E+00  0.45441E+03    0.13750E+00  0.13750E+00 -0.27500E+00  0.00000E+00  0.00000E+00  0.00000E+00    0.10645E+03  0.10036E+03 -0.20681E+03  0.50623E+01  0.75816E+01  0.19147E+03      982.00
  0.23974E+00  0.47599E+03    0.15000E+00  0.15000E+00 -0.30000E+00  0.00000E+00  0.00000E+00  0.00000E+00    0.10997E+03  0.10467E+03 -0.21464E+03  0.48642E+01  0.77699E+01  0.20219E+03      982.00
  0.25665E+00  0.49303E+03    0.16250E+00  0.16250E+00 -0.32500E+00  0.00000E+00  0.00000E+00  0.00000E+00    0.11262E+03  0.10823E+03 -0.22085E+03  0.46485E+01  0.78602E+01  0.21061E+03      982.00
  0.27345E+00  0.50653E+03    0.17500E+00  0.17500E+00 -0.35000E+00  0.00000E+00  0.00000E+00  0.00000E+00    0.11466E+03  0.11113E+03 -0.22579E+03  0.44324E+01  0.78639E+01  0.21727E+03      982.00
  0.29017E+00  0.51761E+03    0.18750E+00  0.18750E+00 -0.37500E+00  0.00000E+00  0.00000E+00  0.00000E+00    0.11624E+03  0.11362E+03 -0.22986E+03  0.42222E+01  0.77953E+01  0.22271E+03      982.00
  0.30682E+00  0.52669E+03    0.20000E+00  0.20000E+00 -0.40000E+00  0.00000E+00  0.00000E+00  0.00000E+00    0.11747E+03  0.11573E+03 -0.23320E+03  0.40257E+01  0.76713E+01  0.22717E+03      982.00
  0.32342E+00  0.53423E+03    0.21250E+00  0.21250E+00 -0.42500E+00  0.00000E+00  0.00000E+00  0.00000E+00    0.11843E+03  0.11754E+03 -0.23597E+03  0.38460E+01  0.75066E+01  0.23087E+03      982.00
  0.33999E+00  0.54072E+03    0.22500E+00  0.22500E+00 -0.45000E+00  0.00000E+00  0.00000E+00  0.00000E+00    0.11924E+03  0.11911E+03 -0.23835E+03  0.36834E+01  0.73006E+01  0.23406E+03      982.00
  0.35652E+00  0.54611E+03    0.23750E+00  0.23750E+00 -0.47500E+00  0.00000E+00  0.00000E+00  0.00000E+00    0.11986E+03  0.12046E+03 -0.24033E+03  0.35381E+01  0.70708E+01  0.23671E+03      982.00
  0.37302E+00  0.55075E+03    0.25000E+00  0.25000E+00 -0.50000E+00  0.00000E+00  0.00000E+00  0.00000E+00    0.12038E+03  0.12165E+03 -0.24203E+03  0.34093E+01  0.68244E+01  0.23899E+03      982.00
  0.38950E+00  0.55489E+03    0.26250E+00  0.26250E+00 -0.52500E+00  0.00000E+00  0.00000E+00  0.00000E+00    0.12084E+03  0.12270E+03 -0.24354E+03  0.32956E+01  0.65600E+01  0.24103E+03      982.00
  0.40596E+00  0.55837E+03    0.27500E+00  0.27500E+00 -0.55000E+00  0.00000E+00  0.00000E+00  0.00000E+00    0.12120E+03  0.12362E+03 -0.24482E+03  0.31964E+01  0.62897E+01  0.24274E+03      982.00
  0.42240E+00  0.56155E+03    0.28750E+00  0.28750E+00 -0.57500E+00  0.00000E+00  0.00000E+00  0.00000E+00    0.12155E+03  0.12444E+03 -0.24599E+03  0.31080E+01  0.60137E+01  0.24430E+03      982.00
  0.43883E+00  0.56426E+03    0.30000E+00  0.30000E+00 -0.60000E+00  0.00000E+00  0.00000E+00  0.00000E+00    0.12181E+03  0.12517E+03 -0.24698E+03  0.30316E+01  0.57389E+01  0.24563E+03      982.00
  0.45524E+00  0.56498E+03    0.31250E+00  0.31250E+00 -0.62500E+00  0.00000E+00  0.00000E+00  0.00000E+00    0.12179E+03  0.12541E+03 -0.24720E+03  0.29450E+01  0.54566E+01  0.24603E+03      982.00
  0.47165E+00  0.56533E+03    0.32500E+00  0.32500E+00 -0.65000E+00  0.00000E+00  0.00000E+00  0.00000E+00    0.12170E+03  0.12557E+03 -0.24727E+03  0.28710E+01  0.51125E+01  0.24625E+03      982.00
  0.48805E+00  0.56559E+03    0.33750E+00  0.33750E+00 -0.67500E+00  0.00000E+00  0.00000E+00  0.00000E+00    0.12165E+03  0.12566E+03 -0.24732E+03  0.28141E+01  0.48506E+01  0.24641E+03      982.00
  0.50445E+00  0.56581E+03    0.35000E+00  0.35000E+00 -0.70000E+00  0.00000E+00  0.00000E+00  0.00000E+00    0.12163E+03  0.12573E+03 -0.24737E+03  0.27594E+01  0.45979E+01  0.24655E+03      982.00
  0.52084E+00  0.56602E+03    0.36250E+00  0.36250E+00 -0.72500E+00  0.00000E+00  0.00000E+00  0.00000E+00    0.12162E+03  0.12579E+03 -0.24741E+03  0.27058E+01  0.43549E+01  0.24668E+03      982.00
  0.53724E+00  0.56630E+03    0.37500E+00  0.37500E+00 -0.75000E+00  0.00000E+00  0.00000E+00  0.00000E+00    0.12162E+03  0.12585E+03 -0.24747E+03  0.26134E+01  0.40105E+01  0.24686E+03      982.00
  0.55362E+00  0.56649E+03    0.38750E+00  0.38750E+00 -0.77500E+00  0.00000E+00  0.00000E+00  0.00000E+00    0.12162E+03  0.12590E+03 -0.24752E+03  0.25613E+01  0.37869E+01  0.24697E+03      982.00
  0.57001E+00  0.56664E+03    0.40000E+00  0.40000E+00 -0.80000E+00  0.00000E+00  0.00000E+00  0.00000E+00    0.12163E+03  0.12593E+03 -0.24756E+03  0.25112E+01  0.35777E+01  0.24706E+03      982.00
  0.58639E+00  0.56678E+03    0.41250E+00  0.41250E+00 -0.82500E+00  0.00000E+00  0.00000E+00  0.00000E+00    0.12165E+03  0.12594E+03 -0.24759E+03  0.24608E+01  0.33765E+01  0.24715E+03      982.00
  0.60277E+00  0.56691E+03    0.42500E+00  0.42500E+00 -0.85000E+00  0.00000E+00  0.00000E+00  0.00000E+00    0.12167E+03  0.12595E+03 -0.24763E+03  0.24099E+01  0.31835E+01  0.24723E+03      982.00
  0.61915E+00  0.56704E+03    0.43750E+00  0.43750E+00 -0.87500E+00  0.00000E+00  0.00000E+00  0.00000E+00    0.12170E+03  0.12596E+03 -0.24766E+03  0.23584E+01  0.29983E+01  0.24730E+03      982.00
  0.63553E+00  0.56715E+03    0.45000E+00  0.45000E+00 -0.90000E+00  0.00000E+00  0.00000E+00  0.00000E+00    0.12173E+03  0.12596E+03 -0.24770E+03  0.23065E+01  0.28205E+01  0.24736E+03      982.00
  0.65191E+00  0.56726E+03    0.46250E+00  0.46250E+00 -0.92500E+00  0.00000E+00  0.00000E+00  0.00000E+00    0.12177E+03  0.12596E+03 -0.24773E+03  0.22540E+01  0.26500E+01  0.24742E+03      982.00
  0.66829E+00  0.56736E+03    0.47500E+00  0.47500E+00 -0.95000E+00  0.00000E+00  0.00000E+00  0.00000E+00    0.12180E+03  0.12596E+03 -0.24776E+03  0.22012E+01  0.24862E+01  0.24748E+03      982.00
  0.68466E+00  0.56746E+03    0.48750E+00  0.48750E+00 -0.97500E+00  0.00000E+00  0.00000E+00  0.00000E+00    0.12184E+03  0.12595E+03 -0.24779E+03  0.21480E+01  0.23291E+01  0.24753E+03      982.00
  0.70104E+00  0.56755E+03    0.50000E+00  0.50000E+00 -0.10000E+01  0.00000E+00  0.00000E+00  0.00000E+00    0.12189E+03  0.12594E+03 -0.24782E+03  0.20947E+01  0.21782E+01  0.24758E+03      982.00
